'Elapsed time','Resp C','Resp A','Resp N','SpO2'
'hh:mm:ss.mmm','mV','mV','mV','mV'
'0:00.000',-0.102,-0.345,0.235,98.000
'0:00.010',-0.102,-0.345,0.236,98.000
'0:00.020',-0.103,-0.346,0.237,98.000
'0:00.030',-0.104,-0.347,0.238,98.000
'0:00.040',-0.105,-0.348,0.239,98.000
'0:00.050',-0.107,-0.349,0.240,98.000
'0:00.060',-0.103,-0.351,0.241,98.000
'0:00.070',-0.099,-0.353,0.242,98.000
'0:00.080',-0.096,-0.355,0.243,98.000
'0:00.090',-0.092,-0.356,0.244,98.000
'0:00.100',-0.089,-0.358,0.245,98.000
'0:00.110',-0.088,-0.358,0.246,98.000
'0:00.120',-0.086,-0.359,0.246,98.000
'0:00.130',-0.085,-0.359,0.247,98.000
'0:00.140',-0.084,-0.359,0.248,98.000
'0:00.150',-0.083,-0.360,0.249,98.000
'0:00.160',-0.085,-0.359,0.250,98.000
'0:00.170',-0.087,-0.359,0.251,98.000
'0:00.180',-0.089,-0.359,0.252,98.000
'0:00.190',-0.091,-0.358,0.252,98.000
'0:00.200',-0.093,-0.358,0.253,98.000
'0:00.210',-0.096,-0.358,0.254,98.000
'0:00.220',-0.098,-0.357,0.255,98.000
'0:00.230',-0.100,-0.357,0.256,98.000
'0:00.240',-0.102,-0.357,0.257,98.000
'0:00.250',-0.104,-0.357,0.257,98.000
'0:00.260',-0.098,-0.357,0.258,98.000
'0:00.270',-0.093,-0.358,0.259,98.000
'0:00.280',-0.087,-0.359,0.259,98.000
'0:00.290',-0.082,-0.359,0.260,98.000
'0:00.300',-0.076,-0.360,0.260,98.000
'0:00.310',-0.080,-0.360,0.261,98.000
'0:00.320',-0.084,-0.359,0.262,98.000
'0:00.330',-0.087,-0.359,0.262,98.000
'0:00.340',-0.091,-0.359,0.263,98.000
'0:00.350',-0.094,-0.358,0.264,98.000
'0:00.360',-0.096,-0.359,0.264,98.000
'0:00.370',-0.098,-0.361,0.265,98.000
'0:00.380',-0.100,-0.362,0.266,98.000
'0:00.390',-0.102,-0.363,0.266,98.000
'0:00.400',-0.103,-0.364,0.267,98.000
'0:00.410',-0.104,-0.363,0.267,98.000
'0:00.420',-0.105,-0.363,0.268,98.000
'0:00.430',-0.105,-0.362,0.269,98.000
'0:00.440',-0.106,-0.361,0.269,98.000
'0:00.450',-0.107,-0.360,0.270,98.000
'0:00.460',-0.114,-0.357,0.270,98.000
'0:00.470',-0.120,-0.355,0.271,98.000
'0:00.480',-0.127,-0.352,0.271,98.000
'0:00.490',-0.133,-0.350,0.272,98.000
'0:00.500',-0.140,-0.347,0.272,98.000
'0:00.510',-0.132,-0.351,0.273,98.000
'0:00.520',-0.124,-0.355,0.273,98.000
'0:00.530',-0.116,-0.358,0.274,98.000
'0:00.540',-0.108,-0.362,0.274,98.000
'0:00.550',-0.101,-0.366,0.274,98.000
'0:00.560',-0.100,-0.367,0.275,98.000
'0:00.570',-0.099,-0.369,0.275,98.000
'0:00.580',-0.098,-0.371,0.275,98.000
'0:00.590',-0.097,-0.372,0.276,98.000
'0:00.600',-0.097,-0.374,0.276,98.000
'0:00.610',-0.100,-0.372,0.276,98.000
'0:00.620',-0.104,-0.370,0.276,98.000
'0:00.630',-0.108,-0.369,0.275,98.000
'0:00.640',-0.112,-0.367,0.275,98.000
'0:00.650',-0.116,-0.366,0.275,98.000
'0:00.660',-0.114,-0.364,0.273,98.000
'0:00.670',-0.111,-0.363,0.271,98.000
'0:00.680',-0.109,-0.362,0.270,98.000
'0:00.690',-0.107,-0.360,0.268,98.000
'0:00.700',-0.105,-0.359,0.267,98.000
'0:00.710',-0.104,-0.358,0.264,98.000
'0:00.720',-0.104,-0.356,0.261,98.000
'0:00.730',-0.104,-0.355,0.259,98.000
'0:00.740',-0.104,-0.353,0.256,98.000
'0:00.750',-0.104,-0.352,0.253,98.000
'0:00.760',-0.098,-0.350,0.250,98.000
'0:00.770',-0.093,-0.349,0.247,98.000
'0:00.780',-0.088,-0.348,0.244,98.000
'0:00.790',-0.082,-0.347,0.241,98.000
'0:00.800',-0.077,-0.345,0.238,98.000
'0:00.810',-0.078,-0.343,0.235,98.000
'0:00.820',-0.079,-0.341,0.231,98.000
'0:00.830',-0.079,-0.338,0.228,98.000
'0:00.840',-0.080,-0.336,0.225,98.000
'0:00.850',-0.081,-0.334,0.222,98.000
'0:00.860',-0.083,-0.332,0.218,98.000
'0:00.870',-0.085,-0.330,0.215,98.000
'0:00.880',-0.087,-0.327,0.212,98.000
'0:00.890',-0.088,-0.325,0.208,98.000
'0:00.900',-0.090,-0.323,0.205,98.000
'0:00.910',-0.088,-0.320,0.202,98.000
'0:00.920',-0.086,-0.317,0.198,98.000
'0:00.930',-0.084,-0.314,0.195,98.000
'0:00.940',-0.082,-0.311,0.191,98.000
'0:00.950',-0.080,-0.308,0.188,98.000
'0:00.960',-0.076,-0.307,0.184,98.000
'0:00.970',-0.072,-0.305,0.181,98.000
'0:00.980',-0.068,-0.304,0.177,98.000
'0:00.990',-0.064,-0.302,0.174,98.000
'0:01.000',-0.059,-0.301,0.170,98.000
'0:01.010',-0.063,-0.296,0.166,98.000
'0:01.020',-0.066,-0.291,0.163,98.000
'0:01.030',-0.069,-0.286,0.159,98.000
'0:01.040',-0.072,-0.281,0.155,98.000
'0:01.050',-0.076,-0.276,0.151,98.000
'0:01.060',-0.080,-0.270,0.147,98.000
'0:01.070',-0.084,-0.263,0.144,98.000
'0:01.080',-0.088,-0.257,0.140,98.000
'0:01.090',-0.092,-0.250,0.136,98.000
'0:01.100',-0.096,-0.243,0.133,98.000
'0:01.110',-0.092,-0.240,0.129,98.000
'0:01.120',-0.089,-0.236,0.125,98.000
'0:01.130',-0.085,-0.232,0.122,98.000
'0:01.140',-0.081,-0.229,0.118,98.000
'0:01.150',-0.077,-0.225,0.115,98.000
'0:01.160',-0.082,-0.215,0.111,98.000
'0:01.170',-0.086,-0.205,0.107,98.000
'0:01.180',-0.090,-0.195,0.103,98.000
'0:01.190',-0.094,-0.185,0.099,98.000
'0:01.200',-0.098,-0.176,0.095,98.000
'0:01.210',-0.094,-0.171,0.092,98.000
'0:01.220',-0.091,-0.167,0.088,98.000
'0:01.230',-0.087,-0.163,0.084,98.000
'0:01.240',-0.083,-0.159,0.080,98.000
'0:01.250',-0.080,-0.155,0.077,98.000
'0:01.260',-0.079,-0.154,0.073,98.000
'0:01.270',-0.079,-0.153,0.069,98.000
'0:01.280',-0.078,-0.152,0.065,98.000
'0:01.290',-0.078,-0.151,0.062,98.000
'0:01.300',-0.077,-0.150,0.058,98.000
'0:01.310',-0.076,-0.145,0.054,98.000
'0:01.320',-0.076,-0.140,0.050,98.000
'0:01.330',-0.075,-0.135,0.046,98.000
'0:01.340',-0.074,-0.130,0.043,98.000
'0:01.350',-0.074,-0.125,0.039,98.000
'0:01.360',-0.073,-0.123,0.035,98.000
'0:01.370',-0.072,-0.121,0.031,98.000
'0:01.380',-0.072,-0.119,0.028,98.000
'0:01.390',-0.071,-0.117,0.024,98.000
'0:01.400',-0.071,-0.115,0.020,98.000
'0:01.410',-0.071,-0.110,0.017,98.000
'0:01.420',-0.072,-0.105,0.013,98.000
'0:01.430',-0.072,-0.100,0.009,98.000
'0:01.440',-0.072,-0.094,0.005,98.000
'0:01.450',-0.073,-0.089,0.002,98.000
'0:01.460',-0.078,-0.093,-0.002,98.000
'0:01.470',-0.083,-0.096,-0.006,98.000
'0:01.480',-0.088,-0.099,-0.009,98.000
'0:01.490',-0.094,-0.102,-0.013,98.000
'0:01.500',-0.099,-0.105,-0.017,98.000
'0:01.510',-0.104,-0.105,-0.020,98.000
'0:01.520',-0.110,-0.105,-0.024,98.000
'0:01.530',-0.115,-0.105,-0.027,98.000
'0:01.540',-0.121,-0.105,-0.031,98.000
'0:01.550',-0.126,-0.105,-0.034,98.000
'0:01.560',-0.113,-0.095,-0.038,98.000
'0:01.570',-0.100,-0.086,-0.042,98.000
'0:01.580',-0.087,-0.076,-0.045,98.000
'0:01.590',-0.074,-0.066,-0.049,98.000
'0:01.600',-0.061,-0.057,-0.053,98.000
'0:01.610',-0.068,-0.060,-0.056,98.000
'0:01.620',-0.075,-0.064,-0.060,98.000
'0:01.630',-0.082,-0.068,-0.064,98.000
'0:01.640',-0.089,-0.072,-0.067,98.000
'0:01.650',-0.096,-0.075,-0.071,98.000
'0:01.660',-0.094,-0.072,-0.074,98.000
'0:01.670',-0.092,-0.070,-0.078,98.000
'0:01.680',-0.090,-0.067,-0.081,98.000
'0:01.690',-0.089,-0.064,-0.085,98.000
'0:01.700',-0.087,-0.062,-0.088,98.000
'0:01.710',-0.079,-0.056,-0.091,98.000
'0:01.720',-0.070,-0.049,-0.095,98.000
'0:01.730',-0.061,-0.043,-0.098,98.000
'0:01.740',-0.053,-0.037,-0.101,98.000
'0:01.750',-0.044,-0.031,-0.105,98.000
'0:01.760',-0.052,-0.034,-0.108,98.000
'0:01.770',-0.059,-0.037,-0.111,98.000
'0:01.780',-0.066,-0.040,-0.114,98.000
'0:01.790',-0.073,-0.043,-0.117,98.000
'0:01.800',-0.080,-0.045,-0.120,98.000
'0:01.810',-0.079,-0.044,-0.124,98.000
'0:01.820',-0.078,-0.042,-0.127,98.000
'0:01.830',-0.077,-0.041,-0.130,98.000
'0:01.840',-0.076,-0.039,-0.133,98.000
'0:01.850',-0.075,-0.038,-0.137,98.000
'0:01.860',-0.079,-0.038,-0.139,98.000
'0:01.870',-0.084,-0.038,-0.142,98.000
'0:01.880',-0.088,-0.038,-0.145,98.000
'0:01.890',-0.092,-0.039,-0.148,98.000
'0:01.900',-0.096,-0.039,-0.151,98.000
'0:01.910',-0.093,-0.036,-0.154,98.000
'0:01.920',-0.089,-0.033,-0.157,98.000
'0:01.930',-0.086,-0.030,-0.159,98.000
'0:01.940',-0.082,-0.027,-0.162,98.000
'0:01.950',-0.079,-0.024,-0.165,98.000
'0:01.960',-0.071,-0.018,-0.167,98.000
'0:01.970',-0.063,-0.013,-0.170,98.000
'0:01.980',-0.056,-0.007,-0.173,98.000
'0:01.990',-0.048,-0.001,-0.175,98.000
'0:02.000',-0.040,0.004,-0.178,98.000
'0:02.010',-0.038,0.007,-0.181,98.000
'0:02.020',-0.036,0.011,-0.183,98.000
'0:02.030',-0.034,0.014,-0.186,98.000
'0:02.040',-0.033,0.017,-0.188,98.000
'0:02.050',-0.031,0.020,-0.191,98.000
'0:02.060',-0.028,0.022,-0.193,98.000
'0:02.070',-0.025,0.025,-0.196,98.000
'0:02.080',-0.022,0.028,-0.198,98.000
'0:02.090',-0.019,0.030,-0.201,98.000
'0:02.100',-0.017,0.033,-0.203,98.000
'0:02.110',-0.016,0.035,-0.205,98.000
'0:02.120',-0.015,0.037,-0.208,98.000
'0:02.130',-0.014,0.039,-0.210,98.000
'0:02.140',-0.013,0.041,-0.213,98.000
'0:02.150',-0.012,0.043,-0.215,98.000
'0:02.160',-0.009,0.045,-0.217,98.000
'0:02.170',-0.006,0.048,-0.219,98.000
'0:02.180',-0.003,0.051,-0.222,98.000
'0:02.190',-0.000,0.054,-0.224,98.000
'0:02.200',0.003,0.057,-0.226,98.000
'0:02.210',0.005,0.058,-0.228,98.000
'0:02.220',0.007,0.060,-0.230,98.000
'0:02.230',0.009,0.061,-0.232,98.000
'0:02.240',0.011,0.062,-0.234,98.000
'0:02.250',0.013,0.064,-0.237,98.000
'0:02.260',0.013,0.065,-0.238,98.000
'0:02.270',0.014,0.065,-0.240,98.000
'0:02.280',0.014,0.066,-0.242,98.000
'0:02.290',0.015,0.067,-0.244,98.000
'0:02.300',0.016,0.068,-0.246,98.000
'0:02.310',0.013,0.069,-0.248,98.000
'0:02.320',0.011,0.070,-0.250,98.000
'0:02.330',0.008,0.071,-0.251,98.000
'0:02.340',0.006,0.072,-0.253,98.000
'0:02.350',0.004,0.074,-0.255,98.000
'0:02.360',0.002,0.076,-0.257,98.000
'0:02.370',0.001,0.079,-0.258,98.000
'0:02.380',-0.000,0.082,-0.260,98.000
'0:02.390',-0.002,0.085,-0.262,98.000
'0:02.400',-0.003,0.088,-0.264,98.000
'0:02.410',-0.008,0.093,-0.265,98.000
'0:02.420',-0.013,0.098,-0.267,98.000
'0:02.430',-0.018,0.103,-0.269,98.000
'0:02.440',-0.023,0.108,-0.270,98.000
'0:02.450',-0.028,0.113,-0.272,98.000
'0:02.460',-0.035,0.117,-0.273,98.000
'0:02.470',-0.041,0.120,-0.275,98.000
'0:02.480',-0.048,0.124,-0.276,98.000
'0:02.490',-0.055,0.128,-0.278,98.000
'0:02.500',-0.062,0.131,-0.279,98.000
'0:02.510',-0.056,0.134,-0.281,98.000
'0:02.520',-0.049,0.137,-0.282,98.000
'0:02.530',-0.043,0.139,-0.284,98.000
'0:02.540',-0.037,0.142,-0.285,98.000
'0:02.550',-0.030,0.145,-0.287,98.000
'0:02.560',-0.033,0.149,-0.288,98.000
'0:02.570',-0.035,0.154,-0.290,98.000
'0:02.580',-0.037,0.158,-0.291,98.000
'0:02.590',-0.039,0.163,-0.293,98.000
'0:02.600',-0.041,0.167,-0.294,98.000
'0:02.610',-0.048,0.169,-0.295,98.000
'0:02.620',-0.055,0.171,-0.297,98.000
'0:02.630',-0.061,0.172,-0.298,98.000
'0:02.640',-0.068,0.174,-0.299,98.000
'0:02.650',-0.075,0.175,-0.301,98.000
'0:02.660',-0.079,0.182,-0.302,98.000
'0:02.670',-0.083,0.189,-0.303,98.000
'0:02.680',-0.087,0.196,-0.305,98.000
'0:02.690',-0.092,0.203,-0.306,98.000
'0:02.700',-0.096,0.210,-0.307,98.000
'0:02.710',-0.098,0.217,-0.308,98.000
'0:02.720',-0.099,0.223,-0.310,98.000
'0:02.730',-0.101,0.230,-0.311,98.000
'0:02.740',-0.102,0.236,-0.312,98.000
'0:02.750',-0.104,0.243,-0.313,98.000
'0:02.760',-0.096,0.239,-0.314,98.000
'0:02.770',-0.088,0.235,-0.315,98.000
'0:02.780',-0.080,0.231,-0.317,98.000
'0:02.790',-0.072,0.227,-0.318,98.000
'0:02.800',-0.064,0.224,-0.319,98.000
'0:02.810',-0.061,0.226,-0.320,98.000
'0:02.820',-0.058,0.228,-0.322,98.000
'0:02.830',-0.056,0.230,-0.323,98.000
'0:02.840',-0.053,0.232,-0.324,98.000
'0:02.850',-0.051,0.234,-0.326,98.000
'0:02.860',-0.049,0.236,-0.327,98.000
'0:02.870',-0.047,0.239,-0.327,98.000
'0:02.880',-0.045,0.241,-0.328,98.000
'0:02.890',-0.043,0.244,-0.329,98.000
'0:02.900',-0.041,0.246,-0.330,98.000
'0:02.910',-0.048,0.246,-0.331,98.000
'0:02.920',-0.054,0.246,-0.332,98.000
'0:02.930',-0.061,0.246,-0.333,98.000
'0:02.940',-0.067,0.246,-0.334,98.000
'0:02.950',-0.074,0.246,-0.334,98.000
'0:02.960',-0.077,0.248,-0.335,98.000
'0:02.970',-0.081,0.250,-0.336,98.000
'0:02.980',-0.085,0.253,-0.336,98.000
'0:02.990',-0.088,0.255,-0.337,98.000
'0:03.000',-0.092,0.257,-0.337,98.000
'0:03.010',-0.087,0.254,-0.337,98.000
'0:03.020',-0.082,0.251,-0.337,98.000
'0:03.030',-0.077,0.249,-0.337,98.000
'0:03.040',-0.071,0.246,-0.337,98.000
'0:03.050',-0.066,0.243,-0.337,98.000
'0:03.060',-0.061,0.236,-0.336,98.000
'0:03.070',-0.056,0.230,-0.335,98.000
'0:03.080',-0.051,0.224,-0.334,98.000
'0:03.090',-0.046,0.218,-0.333,98.000
'0:03.100',-0.040,0.212,-0.332,98.000
'0:03.110',-0.038,0.208,-0.330,98.000
'0:03.120',-0.035,0.204,-0.327,98.000
'0:03.130',-0.032,0.200,-0.325,98.000
'0:03.140',-0.029,0.197,-0.323,98.000
'0:03.150',-0.026,0.193,-0.321,98.000
'0:03.160',-0.029,0.191,-0.318,98.000
'0:03.170',-0.031,0.189,-0.315,98.000
'0:03.180',-0.033,0.187,-0.311,98.000
'0:03.190',-0.036,0.185,-0.308,98.000
'0:03.200',-0.038,0.183,-0.305,98.000
'0:03.210',-0.032,0.179,-0.301,98.000
'0:03.220',-0.026,0.175,-0.297,98.000
'0:03.230',-0.020,0.171,-0.293,98.000
'0:03.240',-0.013,0.167,-0.289,98.000
'0:03.250',-0.007,0.163,-0.285,98.000
'0:03.260',-0.008,0.160,-0.282,98.000
'0:03.270',-0.009,0.156,-0.278,98.000
'0:03.280',-0.010,0.152,-0.274,98.000
'0:03.290',-0.011,0.149,-0.271,98.000
'0:03.300',-0.012,0.145,-0.267,98.000
'0:03.310',-0.017,0.145,-0.263,98.000
'0:03.320',-0.021,0.144,-0.259,98.000
'0:03.330',-0.025,0.144,-0.256,98.000
'0:03.340',-0.030,0.143,-0.252,98.000
'0:03.350',-0.034,0.143,-0.248,98.000
'0:03.360',-0.029,0.141,-0.245,98.000
'0:03.370',-0.024,0.138,-0.241,98.000
'0:03.380',-0.020,0.136,-0.237,98.000
'0:03.390',-0.015,0.134,-0.233,98.000
'0:03.400',-0.010,0.131,-0.229,98.000
'0:03.410',-0.011,0.128,-0.226,98.000
'0:03.420',-0.011,0.124,-0.222,98.000
'0:03.430',-0.012,0.120,-0.219,98.000
'0:03.440',-0.013,0.116,-0.215,98.000
'0:03.450',-0.013,0.112,-0.211,98.000
'0:03.460',-0.011,0.109,-0.208,98.000
'0:03.470',-0.010,0.106,-0.205,98.000
'0:03.480',-0.008,0.103,-0.201,98.000
'0:03.490',-0.006,0.100,-0.198,98.000
'0:03.500',-0.004,0.096,-0.194,98.000
'0:03.510',-0.004,0.094,-0.191,98.000
'0:03.520',-0.003,0.092,-0.187,98.000
'0:03.530',-0.002,0.089,-0.184,98.000
'0:03.540',-0.001,0.087,-0.181,98.000
'0:03.550',-0.000,0.084,-0.177,98.000
'0:03.560',-0.002,0.083,-0.174,98.000
'0:03.570',-0.004,0.082,-0.170,98.000
'0:03.580',-0.005,0.080,-0.167,98.000
'0:03.590',-0.007,0.079,-0.164,98.000
'0:03.600',-0.009,0.077,-0.160,98.000
'0:03.610',-0.006,0.075,-0.157,98.000
'0:03.620',-0.003,0.072,-0.153,98.000
'0:03.630',0.000,0.069,-0.150,98.000
'0:03.640',0.003,0.066,-0.147,98.000
'0:03.650',0.006,0.063,-0.143,98.000
'0:03.660',0.008,0.063,-0.140,98.000
'0:03.670',0.010,0.063,-0.137,98.000
'0:03.680',0.013,0.063,-0.134,98.000
'0:03.690',0.015,0.062,-0.130,98.000
'0:03.700',0.017,0.062,-0.127,98.000
'0:03.710',0.017,0.061,-0.124,98.000
'0:03.720',0.017,0.060,-0.121,98.000
'0:03.730',0.017,0.059,-0.118,98.000
'0:03.740',0.017,0.058,-0.115,98.000
'0:03.750',0.017,0.057,-0.112,98.000
'0:03.760',0.015,0.054,-0.109,98.000
'0:03.770',0.013,0.051,-0.106,98.000
'0:03.780',0.011,0.049,-0.103,98.000
'0:03.790',0.009,0.046,-0.100,98.000
'0:03.800',0.007,0.043,-0.097,98.000
'0:03.810',0.004,0.041,-0.094,98.000
'0:03.820',0.001,0.038,-0.091,98.000
'0:03.830',-0.003,0.035,-0.088,98.000
'0:03.840',-0.006,0.032,-0.084,98.000
'0:03.850',-0.009,0.030,-0.081,98.000
'0:03.860',-0.011,0.027,-0.078,98.000
'0:03.870',-0.013,0.024,-0.075,98.000
'0:03.880',-0.015,0.021,-0.072,98.000
'0:03.890',-0.016,0.018,-0.069,98.000
'0:03.900',-0.018,0.015,-0.066,98.000
'0:03.910',-0.022,0.011,-0.063,98.000
'0:03.920',-0.026,0.006,-0.060,98.000
'0:03.930',-0.030,0.001,-0.057,98.000
'0:03.940',-0.035,-0.004,-0.053,98.000
'0:03.950',-0.039,-0.009,-0.050,98.000
'0:03.960',-0.044,-0.014,-0.047,98.000
'0:03.970',-0.049,-0.019,-0.044,98.000
'0:03.980',-0.055,-0.024,-0.041,98.000
'0:03.990',-0.060,-0.029,-0.038,98.000
'0:04.000',-0.065,-0.034,-0.035,98.000
'0:04.010',-0.062,-0.032,-0.032,98.000
'0:04.020',-0.058,-0.030,-0.029,98.000
'0:04.030',-0.054,-0.029,-0.026,98.000
'0:04.040',-0.051,-0.027,-0.023,98.000
'0:04.050',-0.047,-0.026,-0.020,98.000
'0:04.060',-0.053,-0.031,-0.017,98.000
'0:04.070',-0.059,-0.036,-0.014,98.000
'0:04.080',-0.065,-0.041,-0.011,98.000
'0:04.090',-0.071,-0.046,-0.008,98.000
'0:04.100',-0.077,-0.051,-0.006,98.000
'0:04.110',-0.075,-0.051,-0.003,98.000
'0:04.120',-0.073,-0.050,0.000,98.000
'0:04.130',-0.071,-0.050,0.003,98.000
'0:04.140',-0.069,-0.049,0.006,98.000
'0:04.150',-0.067,-0.049,0.009,98.000
'0:04.160',-0.063,-0.047,0.012,98.000
'0:04.170',-0.060,-0.045,0.014,98.000
'0:04.180',-0.056,-0.044,0.017,98.000
'0:04.190',-0.053,-0.042,0.020,98.000
'0:04.200',-0.049,-0.040,0.023,98.000
'0:04.210',-0.058,-0.047,0.026,98.000
'0:04.220',-0.067,-0.054,0.028,98.000
'0:04.230',-0.076,-0.061,0.031,98.000
'0:04.240',-0.085,-0.068,0.034,98.000
'0:04.250',-0.094,-0.075,0.036,98.000
'0:04.260',-0.092,-0.074,0.039,98.000
'0:04.270',-0.089,-0.073,0.041,98.000
'0:04.280',-0.087,-0.072,0.044,98.000
'0:04.290',-0.085,-0.071,0.046,98.000
'0:04.300',-0.083,-0.071,0.049,98.000
'0:04.310',-0.081,-0.071,0.051,98.000
'0:04.320',-0.079,-0.071,0.054,98.000
'0:04.330',-0.077,-0.071,0.056,98.000
'0:04.340',-0.075,-0.071,0.059,98.000
'0:04.350',-0.072,-0.071,0.061,98.000
'0:04.360',-0.070,-0.070,0.064,98.000
'0:04.370',-0.068,-0.069,0.066,98.000
'0:04.380',-0.065,-0.068,0.068,98.000
'0:04.390',-0.063,-0.067,0.071,98.000
'0:04.400',-0.061,-0.066,0.073,98.000
'0:04.410',-0.060,-0.066,0.075,98.000
'0:04.420',-0.059,-0.067,0.077,98.000
'0:04.430',-0.058,-0.067,0.080,98.000
'0:04.440',-0.056,-0.067,0.082,98.000
'0:04.450',-0.055,-0.067,0.084,98.000
'0:04.460',-0.054,-0.070,0.086,98.000
'0:04.470',-0.053,-0.073,0.088,98.000
'0:04.480',-0.051,-0.075,0.090,98.000
'0:04.490',-0.050,-0.078,0.093,98.000
'0:04.500',-0.049,-0.081,0.095,98.000
'0:04.510',-0.049,-0.084,0.097,98.000
'0:04.520',-0.048,-0.087,0.099,98.000
'0:04.530',-0.048,-0.089,0.101,98.000
'0:04.540',-0.048,-0.092,0.103,98.000
'0:04.550',-0.048,-0.095,0.105,98.000
'0:04.560',-0.050,-0.099,0.106,98.000
'0:04.570',-0.053,-0.104,0.108,98.000
'0:04.580',-0.055,-0.108,0.110,98.000
'0:04.590',-0.058,-0.113,0.112,98.000
'0:04.600',-0.060,-0.117,0.114,98.000
'0:04.610',-0.061,-0.121,0.116,98.000
'0:04.620',-0.062,-0.125,0.118,98.000
'0:04.630',-0.063,-0.129,0.119,98.000
'0:04.640',-0.064,-0.133,0.121,98.000
'0:04.650',-0.065,-0.137,0.123,98.000
'0:04.660',-0.066,-0.142,0.124,98.000
'0:04.670',-0.067,-0.148,0.126,98.000
'0:04.680',-0.068,-0.154,0.128,98.000
'0:04.690',-0.070,-0.160,0.129,98.000
'0:04.700',-0.071,-0.165,0.131,98.000
'0:04.710',-0.075,-0.162,0.132,98.000
'0:04.720',-0.079,-0.160,0.134,98.000
'0:04.730',-0.083,-0.157,0.135,98.000
'0:04.740',-0.087,-0.154,0.137,98.000
'0:04.750',-0.091,-0.151,0.138,98.000
'0:04.760',-0.090,-0.157,0.139,98.000
'0:04.770',-0.088,-0.164,0.141,98.000
'0:04.780',-0.087,-0.170,0.142,98.000
'0:04.790',-0.085,-0.176,0.143,98.000
'0:04.800',-0.083,-0.182,0.145,98.000
'0:04.810',-0.084,-0.192,0.146,98.000
'0:04.820',-0.084,-0.201,0.148,98.000
'0:04.830',-0.085,-0.211,0.149,98.000
'0:04.840',-0.085,-0.220,0.150,98.000
'0:04.850',-0.085,-0.230,0.152,98.000
'0:04.860',-0.088,-0.231,0.153,98.000
'0:04.870',-0.091,-0.233,0.155,98.000
'0:04.880',-0.094,-0.234,0.156,98.000
'0:04.890',-0.097,-0.236,0.157,98.000
'0:04.900',-0.100,-0.237,0.159,98.000
'0:04.910',-0.092,-0.244,0.160,98.000
'0:04.920',-0.085,-0.251,0.162,98.000
'0:04.930',-0.077,-0.258,0.163,98.000
'0:04.940',-0.070,-0.265,0.164,98.000
'0:04.950',-0.062,-0.272,0.166,98.000
'0:04.960',-0.065,-0.273,0.167,98.000
'0:04.970',-0.069,-0.273,0.169,98.000
'0:04.980',-0.072,-0.274,0.170,98.000
'0:04.990',-0.075,-0.275,0.171,98.000
'0:05.000',-0.078,-0.276,0.173,98.000
'0:05.010',-0.079,-0.277,0.174,98.000
'0:05.020',-0.080,-0.279,0.176,98.000
'0:05.030',-0.080,-0.281,0.177,98.000
'0:05.040',-0.081,-0.282,0.179,98.000
'0:05.050',-0.082,-0.284,0.180,98.000
'0:05.060',-0.080,-0.286,0.182,98.000
'0:05.070',-0.078,-0.287,0.183,98.000
'0:05.080',-0.076,-0.289,0.185,98.000
'0:05.090',-0.074,-0.291,0.186,98.000
'0:05.100',-0.072,-0.293,0.188,98.000
'0:05.110',-0.073,-0.294,0.189,98.000
'0:05.120',-0.074,-0.295,0.191,98.000
'0:05.130',-0.075,-0.296,0.192,98.000
'0:05.140',-0.076,-0.297,0.194,98.000
'0:05.150',-0.078,-0.298,0.195,98.000
'0:05.160',-0.076,-0.300,0.196,98.000
'0:05.170',-0.074,-0.303,0.198,98.000
'0:05.180',-0.072,-0.306,0.199,98.000
'0:05.190',-0.070,-0.309,0.200,98.000
'0:05.200',-0.068,-0.312,0.201,98.000
'0:05.210',-0.069,-0.312,0.203,98.000
'0:05.220',-0.071,-0.313,0.204,98.000
'0:05.230',-0.073,-0.314,0.205,98.000
'0:05.240',-0.074,-0.315,0.207,98.000
'0:05.250',-0.076,-0.316,0.208,98.000
'0:05.260',-0.078,-0.317,0.209,98.000
'0:05.270',-0.080,-0.318,0.211,98.000
'0:05.280',-0.082,-0.318,0.212,98.000
'0:05.290',-0.084,-0.319,0.214,98.000
'0:05.300',-0.086,-0.320,0.215,98.000
'0:05.310',-0.084,-0.322,0.216,98.000
'0:05.320',-0.083,-0.324,0.218,98.000
'0:05.330',-0.081,-0.326,0.219,98.000
'0:05.340',-0.080,-0.327,0.220,98.000
'0:05.350',-0.078,-0.329,0.222,98.000
'0:05.360',-0.080,-0.328,0.223,98.000
'0:05.370',-0.081,-0.327,0.224,98.000
'0:05.380',-0.083,-0.326,0.225,98.000
'0:05.390',-0.085,-0.325,0.226,98.000
'0:05.400',-0.087,-0.324,0.228,98.000
'0:05.410',-0.095,-0.321,0.229,98.000
'0:05.420',-0.103,-0.319,0.230,98.000
'0:05.430',-0.112,-0.317,0.231,98.000
'0:05.440',-0.120,-0.314,0.232,98.000
'0:05.450',-0.128,-0.312,0.234,98.000
'0:05.460',-0.127,-0.315,0.235,98.000
'0:05.470',-0.127,-0.318,0.236,98.000
'0:05.480',-0.126,-0.321,0.237,98.000
'0:05.490',-0.125,-0.324,0.239,98.000
'0:05.500',-0.124,-0.327,0.240,98.000
'0:05.510',-0.120,-0.330,0.241,98.000
'0:05.520',-0.116,-0.333,0.242,98.000
'0:05.530',-0.111,-0.335,0.243,98.000
'0:05.540',-0.107,-0.338,0.245,98.000
'0:05.550',-0.102,-0.341,0.246,98.000
'0:05.560',-0.097,-0.344,0.247,98.000
'0:05.570',-0.092,-0.346,0.248,98.000
'0:05.580',-0.088,-0.349,0.249,98.000
'0:05.590',-0.083,-0.352,0.251,98.000
'0:05.600',-0.078,-0.355,0.252,98.000
'0:05.610',-0.074,-0.357,0.253,98.000
'0:05.620',-0.070,-0.358,0.254,98.000
'0:05.630',-0.066,-0.360,0.255,98.000
'0:05.640',-0.062,-0.361,0.256,98.000
'0:05.650',-0.059,-0.362,0.257,98.000
'0:05.660',-0.061,-0.362,0.258,98.000
'0:05.670',-0.064,-0.361,0.259,98.000
'0:05.680',-0.067,-0.361,0.260,98.000
'0:05.690',-0.070,-0.360,0.261,98.000
'0:05.700',-0.073,-0.360,0.262,98.000
'0:05.710',-0.072,-0.363,0.263,98.000
'0:05.720',-0.071,-0.365,0.264,98.000
'0:05.730',-0.071,-0.368,0.265,98.000
'0:05.740',-0.070,-0.371,0.265,98.000
'0:05.750',-0.070,-0.374,0.266,98.000
'0:05.760',-0.071,-0.377,0.267,98.000
'0:05.770',-0.073,-0.380,0.268,98.000
'0:05.780',-0.074,-0.384,0.269,98.000
'0:05.790',-0.076,-0.387,0.270,98.000
'0:05.800',-0.078,-0.390,0.271,98.000
'0:05.810',-0.078,-0.392,0.271,98.000
'0:05.820',-0.079,-0.394,0.272,98.000
'0:05.830',-0.080,-0.396,0.273,98.000
'0:05.840',-0.080,-0.398,0.274,98.000
'0:05.850',-0.081,-0.400,0.275,98.000
'0:05.860',-0.084,-0.400,0.275,98.000
'0:05.870',-0.087,-0.400,0.276,98.000
'0:05.880',-0.091,-0.400,0.277,98.000
'0:05.890',-0.094,-0.401,0.278,98.000
'0:05.900',-0.097,-0.401,0.279,98.000
'0:05.910',-0.103,-0.401,0.280,98.000
'0:05.920',-0.109,-0.401,0.280,98.000
'0:05.930',-0.116,-0.402,0.281,98.000
'0:05.940',-0.122,-0.402,0.282,98.000
'0:05.950',-0.128,-0.402,0.282,98.000
'0:05.960',-0.123,-0.401,0.283,98.000
'0:05.970',-0.119,-0.401,0.283,98.000
'0:05.980',-0.114,-0.400,0.284,98.000
'0:05.990',-0.110,-0.400,0.284,98.000
'0:06.000',-0.105,-0.399,0.285,98.000
'0:06.010',-0.114,-0.397,0.285,98.000
'0:06.020',-0.122,-0.396,0.286,98.000
'0:06.030',-0.131,-0.394,0.287,98.000
'0:06.040',-0.140,-0.392,0.288,98.000
'0:06.050',-0.149,-0.390,0.288,98.000
'0:06.060',-0.149,-0.391,0.289,98.000
'0:06.070',-0.149,-0.393,0.290,98.000
'0:06.080',-0.150,-0.395,0.290,98.000
'0:06.090',-0.150,-0.396,0.291,98.000
'0:06.100',-0.151,-0.398,0.292,98.000
'0:06.110',-0.135,-0.400,0.292,98.000
'0:06.120',-0.120,-0.401,0.292,98.000
'0:06.130',-0.104,-0.403,0.293,98.000
'0:06.140',-0.089,-0.405,0.293,98.000
'0:06.150',-0.073,-0.407,0.294,98.000
'0:06.160',-0.081,-0.406,0.294,98.000
'0:06.170',-0.089,-0.406,0.295,98.000
'0:06.180',-0.097,-0.405,0.295,98.000
'0:06.190',-0.104,-0.405,0.296,98.000
'0:06.200',-0.112,-0.404,0.296,98.000
'0:06.210',-0.121,-0.404,0.297,98.000
'0:06.220',-0.130,-0.404,0.297,98.000
'0:06.230',-0.139,-0.404,0.298,98.000
'0:06.240',-0.148,-0.404,0.298,98.000
'0:06.250',-0.157,-0.405,0.299,98.000
'0:06.260',-0.147,-0.404,0.299,98.000
'0:06.270',-0.137,-0.403,0.300,98.000
'0:06.280',-0.128,-0.403,0.300,98.000
'0:06.290',-0.118,-0.402,0.301,98.000
'0:06.300',-0.108,-0.401,0.301,98.000
'0:06.310',-0.107,-0.401,0.302,98.000
'0:06.320',-0.106,-0.401,0.302,98.000
'0:06.330',-0.105,-0.400,0.302,98.000
'0:06.340',-0.104,-0.400,0.303,98.000
'0:06.350',-0.103,-0.399,0.303,98.000
'0:06.360',-0.107,-0.399,0.304,98.000
'0:06.370',-0.111,-0.399,0.304,98.000
'0:06.380',-0.115,-0.399,0.305,98.000
'0:06.390',-0.119,-0.399,0.305,98.000
'0:06.400',-0.123,-0.399,0.305,98.000
'0:06.410',-0.120,-0.398,0.306,98.000
'0:06.420',-0.118,-0.397,0.306,98.000
'0:06.430',-0.115,-0.397,0.306,98.000
'0:06.440',-0.112,-0.396,0.306,98.000
'0:06.450',-0.109,-0.395,0.307,98.000
'0:06.460',-0.106,-0.394,0.307,98.000
'0:06.470',-0.103,-0.394,0.307,98.000
'0:06.480',-0.100,-0.393,0.307,98.000
'0:06.490',-0.096,-0.392,0.307,98.000
'0:06.500',-0.093,-0.392,0.307,98.000
'0:06.510',-0.093,-0.392,0.307,98.000
'0:06.520',-0.094,-0.392,0.306,98.000
'0:06.530',-0.094,-0.392,0.306,98.000
'0:06.540',-0.094,-0.391,0.305,98.000
'0:06.550',-0.095,-0.391,0.305,98.000
'0:06.560',-0.101,-0.390,0.303,98.000
'0:06.570',-0.107,-0.389,0.302,98.000
'0:06.580',-0.114,-0.388,0.300,98.000
'0:06.590',-0.120,-0.387,0.298,98.000
'0:06.600',-0.126,-0.386,0.297,98.000
'0:06.610',-0.121,-0.384,0.294,98.000
'0:06.620',-0.116,-0.383,0.291,98.000
'0:06.630',-0.110,-0.382,0.289,98.000
'0:06.640',-0.105,-0.380,0.286,98.000
'0:06.650',-0.100,-0.379,0.283,98.000
'0:06.660',-0.102,-0.379,0.280,98.000
'0:06.670',-0.104,-0.379,0.277,98.000
'0:06.680',-0.107,-0.379,0.274,98.000
'0:06.690',-0.109,-0.379,0.271,98.000
'0:06.700',-0.111,-0.379,0.268,98.000
'0:06.710',-0.112,-0.380,0.265,98.000
'0:06.720',-0.114,-0.380,0.262,98.000
'0:06.730',-0.115,-0.380,0.259,98.000
'0:06.740',-0.116,-0.381,0.256,98.000
'0:06.750',-0.117,-0.381,0.253,98.000
'0:06.760',-0.112,-0.380,0.250,98.000
'0:06.770',-0.106,-0.379,0.247,98.000
'0:06.780',-0.100,-0.378,0.244,98.000
'0:06.790',-0.095,-0.377,0.241,98.000
'0:06.800',-0.089,-0.376,0.238,98.000
'0:06.810',-0.093,-0.374,0.236,98.000
'0:06.820',-0.097,-0.372,0.234,98.000
'0:06.830',-0.101,-0.370,0.231,98.000
'0:06.840',-0.105,-0.368,0.229,98.000
'0:06.850',-0.109,-0.367,0.227,98.000
'0:06.860',-0.106,-0.365,0.224,98.000
'0:06.870',-0.103,-0.363,0.222,98.000
'0:06.880',-0.100,-0.361,0.220,98.000
'0:06.890',-0.097,-0.359,0.218,98.000
'0:06.900',-0.094,-0.357,0.215,98.000
'0:06.910',-0.094,-0.354,0.213,98.000
'0:06.920',-0.094,-0.351,0.211,98.000
'0:06.930',-0.094,-0.348,0.208,98.000
'0:06.940',-0.094,-0.345,0.206,98.000
'0:06.950',-0.094,-0.342,0.204,98.000
'0:06.960',-0.092,-0.340,0.201,98.000
'0:06.970',-0.090,-0.338,0.199,98.000
'0:06.980',-0.088,-0.335,0.197,98.000
'0:06.990',-0.087,-0.333,0.194,98.000
'0:07.000',-0.085,-0.331,0.192,98.000
'0:07.010',-0.084,-0.329,0.189,98.000
'0:07.020',-0.083,-0.328,0.187,98.000
'0:07.030',-0.082,-0.326,0.184,98.000
'0:07.040',-0.081,-0.325,0.182,98.000
'0:07.050',-0.080,-0.323,0.179,98.000
'0:07.060',-0.085,-0.321,0.176,98.000
'0:07.070',-0.089,-0.318,0.174,98.000
'0:07.080',-0.095,-0.315,0.171,98.000
'0:07.090',-0.099,-0.313,0.168,98.000
'0:07.100',-0.104,-0.310,0.165,98.000
'0:07.110',-0.099,-0.308,0.162,98.000
'0:07.120',-0.093,-0.305,0.160,98.000
'0:07.130',-0.087,-0.303,0.157,98.000
'0:07.140',-0.082,-0.301,0.154,98.000
'0:07.150',-0.076,-0.298,0.151,98.000
'0:07.160',-0.069,-0.295,0.148,98.000
'0:07.170',-0.062,-0.292,0.145,98.000
'0:07.180',-0.056,-0.289,0.142,98.000
'0:07.190',-0.049,-0.287,0.140,98.000
'0:07.200',-0.043,-0.284,0.137,98.000
'0:07.210',-0.049,-0.277,0.134,98.000
'0:07.220',-0.055,-0.270,0.131,98.000
'0:07.230',-0.062,-0.263,0.128,98.000
'0:07.240',-0.068,-0.256,0.126,98.000
'0:07.250',-0.074,-0.249,0.123,98.000
'0:07.260',-0.075,-0.246,0.120,98.000
'0:07.270',-0.076,-0.242,0.118,98.000
'0:07.280',-0.077,-0.239,0.115,98.000
'0:07.290',-0.077,-0.235,0.113,98.000
'0:07.300',-0.078,-0.232,0.110,98.000
'0:07.310',-0.075,-0.228,0.108,98.000
'0:07.320',-0.072,-0.224,0.105,98.000
'0:07.330',-0.069,-0.220,0.103,98.000
'0:07.340',-0.066,-0.216,0.100,98.000
'0:07.350',-0.062,-0.212,0.098,98.000
'0:07.360',-0.067,-0.206,0.095,98.000
'0:07.370',-0.072,-0.201,0.093,98.000
'0:07.380',-0.076,-0.195,0.090,98.000
'0:07.390',-0.081,-0.189,0.088,98.000
'0:07.400',-0.086,-0.184,0.085,98.000
'0:07.410',-0.087,-0.182,0.083,98.000
'0:07.420',-0.088,-0.180,0.081,98.000
'0:07.430',-0.090,-0.178,0.078,98.000
'0:07.440',-0.091,-0.176,0.076,98.000
'0:07.450',-0.093,-0.174,0.073,98.000
'0:07.460',-0.087,-0.171,0.071,98.000
'0:07.470',-0.082,-0.169,0.069,98.000
'0:07.480',-0.076,-0.167,0.066,98.000
'0:07.490',-0.070,-0.165,0.064,98.000
'0:07.500',-0.065,-0.163,0.062,98.000
'0:07.510',-0.061,-0.162,0.059,98.000
'0:07.520',-0.058,-0.161,0.057,98.000
'0:07.530',-0.054,-0.161,0.054,98.000
'0:07.540',-0.051,-0.160,0.052,98.000
'0:07.550',-0.047,-0.160,0.050,98.000
'0:07.560',-0.049,-0.153,0.047,98.000
'0:07.570',-0.050,-0.146,0.045,98.000
'0:07.580',-0.051,-0.140,0.043,98.000
'0:07.590',-0.052,-0.133,0.041,98.000
'0:07.600',-0.053,-0.126,0.039,98.000
'0:07.610',-0.054,-0.127,0.037,98.000
'0:07.620',-0.055,-0.127,0.035,98.000
'0:07.630',-0.056,-0.127,0.033,98.000
'0:07.640',-0.057,-0.128,0.031,98.000
'0:07.650',-0.058,-0.128,0.029,98.000
'0:07.660',-0.064,-0.130,0.027,98.000
'0:07.670',-0.070,-0.131,0.025,98.000
'0:07.680',-0.077,-0.133,0.024,98.000
'0:07.690',-0.083,-0.135,0.022,98.000
'0:07.700',-0.090,-0.136,0.020,98.000
'0:07.710',-0.086,-0.129,0.019,98.000
'0:07.720',-0.083,-0.122,0.017,98.000
'0:07.730',-0.080,-0.114,0.016,98.000
'0:07.740',-0.077,-0.107,0.015,98.000
'0:07.750',-0.073,-0.100,0.013,98.000
'0:07.760',-0.077,-0.102,0.012,98.000
'0:07.770',-0.081,-0.104,0.011,98.000
'0:07.780',-0.085,-0.106,0.010,98.000
'0:07.790',-0.089,-0.108,0.008,98.000
'0:07.800',-0.093,-0.110,0.007,98.000
'0:07.810',-0.093,-0.108,0.006,98.000
'0:07.820',-0.093,-0.106,0.005,98.000
'0:07.830',-0.093,-0.104,0.004,98.000
'0:07.840',-0.093,-0.102,0.003,98.000
'0:07.850',-0.093,-0.100,0.003,98.000
'0:07.860',-0.089,-0.098,0.002,98.000
'0:07.870',-0.084,-0.097,0.001,98.000
'0:07.880',-0.079,-0.095,0.000,98.000
'0:07.890',-0.075,-0.093,-0.000,98.000
'0:07.900',-0.070,-0.091,-0.001,98.000
'0:07.910',-0.074,-0.091,-0.002,98.000
'0:07.920',-0.078,-0.091,-0.002,98.000
'0:07.930',-0.082,-0.090,-0.003,98.000
'0:07.940',-0.086,-0.090,-0.004,98.000
'0:07.950',-0.090,-0.090,-0.004,98.000
'0:07.960',-0.084,-0.086,-0.005,98.000
'0:07.970',-0.077,-0.081,-0.005,98.000
'0:07.980',-0.071,-0.077,-0.005,98.000
'0:07.990',-0.065,-0.073,-0.006,98.000
'0:08.000',-0.059,-0.069,-0.006,98.000
'0:08.010',-0.061,-0.070,-0.007,98.000
'0:08.020',-0.062,-0.071,-0.007,98.000
'0:08.030',-0.064,-0.072,-0.008,98.000
'0:08.040',-0.066,-0.074,-0.009,98.000
'0:08.050',-0.068,-0.075,-0.009,98.000
'0:08.060',-0.073,-0.077,-0.010,98.000
'0:08.070',-0.079,-0.080,-0.010,98.000
'0:08.080',-0.084,-0.083,-0.011,98.000
'0:08.090',-0.090,-0.085,-0.011,98.000
'0:08.100',-0.095,-0.088,-0.012,98.000
'0:08.110',-0.096,-0.088,-0.012,98.000
'0:08.120',-0.097,-0.089,-0.013,98.000
'0:08.130',-0.098,-0.089,-0.013,98.000
'0:08.140',-0.099,-0.090,-0.014,98.000
'0:08.150',-0.100,-0.090,-0.014,98.000
'0:08.160',-0.092,-0.084,-0.015,98.000
'0:08.170',-0.084,-0.078,-0.016,98.000
'0:08.180',-0.077,-0.072,-0.016,98.000
'0:08.190',-0.069,-0.066,-0.017,98.000
'0:08.200',-0.061,-0.060,-0.017,98.000
'0:08.210',-0.061,-0.060,-0.018,98.000
'0:08.220',-0.062,-0.060,-0.018,98.000
'0:08.230',-0.062,-0.060,-0.018,98.000
'0:08.240',-0.062,-0.060,-0.019,98.000
'0:08.250',-0.063,-0.060,-0.019,98.000
'0:08.260',-0.065,-0.062,-0.020,98.000
'0:08.270',-0.068,-0.063,-0.020,98.000
'0:08.280',-0.071,-0.065,-0.021,98.000
'0:08.290',-0.074,-0.066,-0.021,98.000
'0:08.300',-0.076,-0.067,-0.022,98.000
'0:08.310',-0.079,-0.069,-0.022,98.000
'0:08.320',-0.082,-0.071,-0.022,98.000
'0:08.330',-0.085,-0.073,-0.023,98.000
'0:08.340',-0.088,-0.075,-0.023,98.000
'0:08.350',-0.092,-0.077,-0.023,98.000
'0:08.360',-0.094,-0.079,-0.024,98.000
'0:08.370',-0.097,-0.080,-0.024,98.000
'0:08.380',-0.099,-0.082,-0.024,98.000
'0:08.390',-0.102,-0.084,-0.024,98.000
'0:08.400',-0.104,-0.085,-0.024,98.000
'0:08.410',-0.100,-0.083,-0.024,98.000
'0:08.420',-0.096,-0.080,-0.024,98.000
'0:08.430',-0.091,-0.077,-0.024,98.000
'0:08.440',-0.087,-0.074,-0.025,98.000
'0:08.450',-0.083,-0.072,-0.025,98.000
'0:08.460',-0.091,-0.077,-0.024,98.000
'0:08.470',-0.099,-0.082,-0.023,98.000
'0:08.480',-0.106,-0.087,-0.022,98.000
'0:08.490',-0.114,-0.092,-0.022,98.000
'0:08.500',-0.122,-0.097,-0.021,98.000
'0:08.510',-0.117,-0.094,-0.019,98.000
'0:08.520',-0.111,-0.090,-0.018,98.000
'0:08.530',-0.105,-0.087,-0.016,98.000
'0:08.540',-0.100,-0.084,-0.015,98.000
'0:08.550',-0.094,-0.080,-0.013,98.000
'0:08.560',-0.092,-0.080,-0.011,98.000
'0:08.570',-0.091,-0.081,-0.009,98.000
'0:08.580',-0.089,-0.081,-0.006,98.000
'0:08.590',-0.088,-0.081,-0.004,98.000
'0:08.600',-0.086,-0.081,-0.002,98.000
'0:08.610',-0.093,-0.086,0.000,98.000
'0:08.620',-0.099,-0.091,0.003,98.000
'0:08.630',-0.106,-0.096,0.005,98.000
'0:08.640',-0.112,-0.102,0.007,98.000
'0:08.650',-0.119,-0.107,0.010,98.000
'0:08.660',-0.116,-0.105,0.012,98.000
'0:08.670',-0.113,-0.103,0.015,98.000
'0:08.680',-0.111,-0.102,0.017,98.000
'0:08.690',-0.108,-0.100,0.020,98.000
'0:08.700',-0.105,-0.098,0.022,98.000
'0:08.710',-0.104,-0.098,0.025,98.000
'0:08.720',-0.103,-0.097,0.028,98.000
'0:08.730',-0.101,-0.097,0.030,98.000
'0:08.740',-0.100,-0.096,0.033,98.000
'0:08.750',-0.098,-0.096,0.035,98.000
'0:08.760',-0.094,-0.094,0.038,98.000
'0:08.770',-0.090,-0.092,0.040,98.000
'0:08.780',-0.086,-0.089,0.043,98.000
'0:08.790',-0.082,-0.087,0.045,98.000
'0:08.800',-0.078,-0.085,0.048,98.000
'0:08.810',-0.083,-0.089,0.050,98.000
'0:08.820',-0.088,-0.092,0.053,98.000
'0:08.830',-0.093,-0.096,0.055,98.000
'0:08.840',-0.098,-0.099,0.058,98.000
'0:08.850',-0.103,-0.102,0.060,98.000
'0:08.860',-0.102,-0.102,0.062,98.000
'0:08.870',-0.102,-0.102,0.065,98.000
'0:08.880',-0.101,-0.102,0.067,98.000
'0:08.890',-0.100,-0.102,0.069,98.000
'0:08.900',-0.100,-0.102,0.072,98.000
'0:08.910',-0.097,-0.101,0.074,98.000
'0:08.920',-0.094,-0.099,0.076,98.000
'0:08.930',-0.092,-0.098,0.078,98.000
'0:08.940',-0.089,-0.097,0.080,98.000
'0:08.950',-0.086,-0.095,0.083,98.000
'0:08.960',-0.089,-0.101,0.085,98.000
'0:08.970',-0.091,-0.107,0.087,98.000
'0:08.980',-0.094,-0.113,0.089,98.000
'0:08.990',-0.097,-0.119,0.091,98.000
'0:09.000',-0.099,-0.125,0.093,98.000
'0:09.010',-0.092,-0.130,0.095,98.000
'0:09.020',-0.086,-0.135,0.097,98.000
'0:09.030',-0.079,-0.140,0.100,98.000
'0:09.040',-0.073,-0.145,0.102,98.000
'0:09.050',-0.066,-0.151,0.104,98.000
'0:09.060',-0.064,-0.156,0.106,98.000
'0:09.070',-0.062,-0.161,0.107,98.000
'0:09.080',-0.059,-0.166,0.109,98.000
'0:09.090',-0.057,-0.172,0.111,98.000
'0:09.100',-0.055,-0.177,0.113,98.000
'0:09.110',-0.062,-0.174,0.114,98.000
'0:09.120',-0.069,-0.171,0.116,98.000
'0:09.130',-0.077,-0.168,0.118,98.000
'0:09.140',-0.084,-0.165,0.119,98.000
'0:09.150',-0.091,-0.162,0.121,98.000
'0:09.160',-0.093,-0.161,0.123,98.000
'0:09.170',-0.095,-0.160,0.125,98.000
'0:09.180',-0.097,-0.159,0.127,98.000
'0:09.190',-0.098,-0.157,0.128,98.000
'0:09.200',-0.100,-0.156,0.130,98.000
'0:09.210',-0.097,-0.163,0.132,98.000
'0:09.220',-0.094,-0.170,0.133,98.000
'0:09.230',-0.091,-0.176,0.135,98.000
'0:09.240',-0.087,-0.183,0.137,98.000
'0:09.250',-0.084,-0.189,0.138,98.000
'0:09.260',-0.086,-0.190,0.140,98.000
'0:09.270',-0.089,-0.190,0.141,98.000
'0:09.280',-0.091,-0.190,0.143,98.000
'0:09.290',-0.093,-0.190,0.144,98.000
'0:09.300',-0.096,-0.190,0.146,98.000
'0:09.310',-0.097,-0.194,0.148,98.000
'0:09.320',-0.099,-0.197,0.149,98.000
'0:09.330',-0.101,-0.201,0.151,98.000
'0:09.340',-0.103,-0.204,0.153,98.000
'0:09.350',-0.105,-0.208,0.154,98.000
'0:09.360',-0.100,-0.215,0.156,98.000
'0:09.370',-0.096,-0.223,0.158,98.000
'0:09.380',-0.091,-0.230,0.159,98.000
'0:09.390',-0.086,-0.238,0.161,98.000
'0:09.400',-0.082,-0.245,0.162,98.000
'0:09.410',-0.081,-0.244,0.164,98.000
'0:09.420',-0.081,-0.242,0.165,98.000
'0:09.430',-0.081,-0.240,0.166,98.000
'0:09.440',-0.081,-0.239,0.168,98.000
'0:09.450',-0.080,-0.237,0.169,98.000
'0:09.460',-0.089,-0.235,0.171,98.000
'0:09.470',-0.097,-0.232,0.172,98.000
'0:09.480',-0.106,-0.230,0.174,98.000
'0:09.490',-0.115,-0.227,0.175,98.000
'0:09.500',-0.123,-0.225,0.177,98.000
'0:09.510',-0.119,-0.235,0.178,98.000
'0:09.520',-0.114,-0.245,0.179,98.000
'0:09.530',-0.110,-0.255,0.181,98.000
'0:09.540',-0.106,-0.266,0.182,98.000
'0:09.550',-0.102,-0.276,0.184,98.000
'0:09.560',-0.097,-0.283,0.185,98.000
'0:09.570',-0.092,-0.291,0.186,98.000
'0:09.580',-0.087,-0.298,0.188,98.000
'0:09.590',-0.082,-0.306,0.189,98.000
'0:09.600',-0.077,-0.314,0.190,98.000
'0:09.610',-0.082,-0.312,0.192,98.000
'0:09.620',-0.087,-0.311,0.193,98.000
'0:09.630',-0.092,-0.310,0.194,98.000
'0:09.640',-0.098,-0.309,0.195,98.000
'0:09.650',-0.103,-0.308,0.197,98.000
'0:09.660',-0.103,-0.309,0.198,98.000
'0:09.670',-0.103,-0.309,0.199,98.000
'0:09.680',-0.103,-0.310,0.201,98.000
'0:09.690',-0.104,-0.311,0.202,98.000
'0:09.700',-0.104,-0.312,0.203,98.000
'0:09.710',-0.102,-0.314,0.205,98.000
'0:09.720',-0.100,-0.315,0.206,98.000
'0:09.730',-0.098,-0.317,0.207,98.000
'0:09.740',-0.096,-0.318,0.209,98.000
'0:09.750',-0.095,-0.320,0.210,98.000
'0:09.760',-0.100,-0.320,0.211,98.000
'0:09.770',-0.105,-0.319,0.212,98.000
'0:09.780',-0.111,-0.319,0.213,98.000
'0:09.790',-0.116,-0.319,0.215,98.000
'0:09.800',-0.121,-0.319,0.216,98.000
'0:09.810',-0.122,-0.319,0.217,98.000
'0:09.820',-0.122,-0.319,0.218,98.000
'0:09.830',-0.122,-0.319,0.219,98.000
'0:09.840',-0.122,-0.319,0.221,98.000
'0:09.850',-0.122,-0.319,0.222,98.000
'0:09.860',-0.118,-0.322,0.223,98.000
'0:09.870',-0.115,-0.324,0.224,98.000
'0:09.880',-0.111,-0.327,0.225,98.000
'0:09.890',-0.107,-0.329,0.226,98.000
'0:09.900',-0.104,-0.332,0.227,98.000
'0:09.910',-0.110,-0.331,0.228,98.000
'0:09.920',-0.116,-0.329,0.229,98.000
'0:09.930',-0.121,-0.327,0.230,98.000
'0:09.940',-0.127,-0.326,0.231,98.000
'0:09.950',-0.133,-0.324,0.232,98.000
'0:09.960',-0.134,-0.324,0.233,98.000
'0:09.970',-0.135,-0.323,0.234,98.000
'0:09.980',-0.136,-0.322,0.235,98.000
'0:09.990',-0.137,-0.321,0.236,98.000
'0:10.000',-0.138,-0.321,0.237,98.000
'0:10.010',-0.140,-0.322,0.238,98.000
'0:10.020',-0.142,-0.323,0.239,98.000
'0:10.030',-0.144,-0.324,0.240,98.000
'0:10.040',-0.146,-0.325,0.241,98.000
'0:10.050',-0.148,-0.326,0.242,98.000
'0:10.060',-0.145,-0.326,0.243,98.000
'0:10.070',-0.142,-0.327,0.243,98.000
'0:10.080',-0.139,-0.327,0.244,98.000
'0:10.090',-0.135,-0.328,0.245,98.000
'0:10.100',-0.132,-0.328,0.246,98.000
'0:10.110',-0.127,-0.330,0.247,98.000
'0:10.120',-0.121,-0.331,0.248,98.000
'0:10.130',-0.116,-0.333,0.248,98.000
'0:10.140',-0.111,-0.334,0.249,98.000
'0:10.150',-0.105,-0.336,0.250,98.000
'0:10.160',-0.107,-0.336,0.251,98.000
'0:10.170',-0.108,-0.335,0.251,98.000
'0:10.180',-0.109,-0.335,0.252,98.000
'0:10.190',-0.110,-0.335,0.253,98.000
'0:10.200',-0.112,-0.335,0.254,98.000
'0:10.210',-0.109,-0.336,0.254,98.000
'0:10.220',-0.106,-0.337,0.255,98.000
'0:10.230',-0.103,-0.338,0.256,98.000
'0:10.240',-0.101,-0.339,0.256,98.000
'0:10.250',-0.098,-0.340,0.257,98.000
'0:10.260',-0.101,-0.339,0.258,98.000
'0:10.270',-0.104,-0.338,0.258,98.000
'0:10.280',-0.107,-0.337,0.259,98.000
'0:10.290',-0.110,-0.336,0.260,98.000
'0:10.300',-0.113,-0.335,0.260,98.000
'0:10.310',-0.113,-0.337,0.261,98.000
'0:10.320',-0.114,-0.339,0.262,98.000
'0:10.330',-0.115,-0.340,0.262,98.000
'0:10.340',-0.116,-0.342,0.263,98.000
'0:10.350',-0.116,-0.343,0.263,98.000
'0:10.360',-0.116,-0.345,0.264,98.000
'0:10.370',-0.115,-0.346,0.264,98.000
'0:10.380',-0.115,-0.348,0.265,98.000
'0:10.390',-0.114,-0.350,0.266,98.000
'0:10.400',-0.113,-0.351,0.266,98.000
'0:10.410',-0.117,-0.347,0.267,98.000
'0:10.420',-0.121,-0.343,0.267,98.000
'0:10.430',-0.126,-0.339,0.268,98.000
'0:10.440',-0.130,-0.335,0.268,98.000
'0:10.450',-0.134,-0.331,0.269,98.000
'0:10.460',-0.131,-0.331,0.270,98.000
'0:10.470',-0.129,-0.332,0.270,98.000
'0:10.480',-0.127,-0.332,0.271,98.000
'0:10.490',-0.125,-0.333,0.272,98.000
'0:10.500',-0.123,-0.333,0.272,98.000
'0:10.510',-0.131,-0.334,0.273,98.000
'0:10.520',-0.140,-0.335,0.274,98.000
'0:10.530',-0.148,-0.335,0.274,98.000
'0:10.540',-0.157,-0.336,0.275,98.000
'0:10.550',-0.166,-0.337,0.275,98.000
'0:10.560',-0.172,-0.338,0.276,98.000
'0:10.570',-0.178,-0.339,0.276,98.000
'0:10.580',-0.184,-0.340,0.277,98.000
'0:10.590',-0.190,-0.342,0.277,98.000
'0:10.600',-0.196,-0.343,0.278,98.000
'0:10.610',-0.189,-0.345,0.278,98.000
'0:10.620',-0.183,-0.347,0.278,98.000
'0:10.630',-0.177,-0.350,0.279,98.000
'0:10.640',-0.171,-0.352,0.279,98.000
'0:10.650',-0.164,-0.354,0.280,98.000
'0:10.660',-0.165,-0.354,0.280,98.000
'0:10.670',-0.166,-0.355,0.280,98.000
'0:10.680',-0.166,-0.355,0.281,98.000
'0:10.690',-0.167,-0.355,0.281,98.000
'0:10.700',-0.168,-0.355,0.281,98.000
'0:10.710',-0.159,-0.358,0.282,98.000
'0:10.720',-0.151,-0.362,0.282,98.000
'0:10.730',-0.142,-0.365,0.283,98.000
'0:10.740',-0.134,-0.369,0.283,98.000
'0:10.750',-0.125,-0.372,0.283,98.000
'0:10.760',-0.127,-0.371,0.284,98.000
'0:10.770',-0.130,-0.370,0.285,98.000
'0:10.780',-0.132,-0.369,0.285,98.000
'0:10.790',-0.134,-0.368,0.286,98.000
'0:10.800',-0.136,-0.366,0.287,98.000
'0:10.810',-0.143,-0.365,0.287,98.000
'0:10.820',-0.150,-0.363,0.287,98.000
'0:10.830',-0.157,-0.362,0.287,98.000
'0:10.840',-0.163,-0.360,0.288,98.000
'0:10.850',-0.170,-0.359,0.288,98.000
'0:10.860',-0.162,-0.362,0.288,98.000
'0:10.870',-0.153,-0.365,0.288,98.000
'0:10.880',-0.144,-0.368,0.289,98.000
'0:10.890',-0.136,-0.372,0.289,98.000
'0:10.900',-0.127,-0.375,0.289,98.000
'0:10.910',-0.131,-0.374,0.289,98.000
'0:10.920',-0.135,-0.373,0.289,98.000
'0:10.930',-0.139,-0.373,0.290,98.000
'0:10.940',-0.144,-0.372,0.290,98.000
'0:10.950',-0.148,-0.371,0.290,98.000
'0:10.960',-0.146,-0.372,0.290,98.000
'0:10.970',-0.145,-0.374,0.291,98.000
'0:10.980',-0.144,-0.375,0.291,98.000
'0:10.990',-0.142,-0.376,0.291,98.000
'0:11.000',-0.141,-0.377,0.291,98.000
'0:11.010',-0.137,-0.379,0.292,98.000
'0:11.020',-0.133,-0.381,0.292,98.000
'0:11.030',-0.128,-0.383,0.293,98.000
'0:11.040',-0.124,-0.385,0.293,98.000
'0:11.050',-0.120,-0.387,0.293,98.000
'0:11.060',-0.123,-0.386,0.294,98.000
'0:11.070',-0.125,-0.386,0.294,98.000
'0:11.080',-0.128,-0.385,0.294,98.000
'0:11.090',-0.130,-0.384,0.294,98.000
'0:11.100',-0.133,-0.384,0.295,98.000
'0:11.110',-0.134,-0.384,0.295,98.000
'0:11.120',-0.135,-0.385,0.295,98.000
'0:11.130',-0.137,-0.385,0.295,98.000
'0:11.140',-0.138,-0.386,0.295,98.000
'0:11.150',-0.139,-0.386,0.295,98.000
'0:11.160',-0.144,-0.386,0.295,98.000
'0:11.170',-0.148,-0.386,0.295,98.000
'0:11.180',-0.152,-0.385,0.295,98.000
'0:11.190',-0.156,-0.385,0.296,98.000
'0:11.200',-0.161,-0.385,0.296,98.000
'0:11.210',-0.160,-0.384,0.296,98.000
'0:11.220',-0.159,-0.384,0.296,98.000
'0:11.230',-0.158,-0.383,0.296,98.000
'0:11.240',-0.157,-0.383,0.296,98.000
'0:11.250',-0.157,-0.382,0.296,98.000
'0:11.260',-0.156,-0.382,0.296,98.000
'0:11.270',-0.156,-0.382,0.296,98.000
'0:11.280',-0.155,-0.382,0.296,98.000
'0:11.290',-0.154,-0.381,0.296,98.000
'0:11.300',-0.154,-0.381,0.297,98.000
'0:11.310',-0.149,-0.383,0.297,98.000
'0:11.320',-0.144,-0.385,0.297,98.000
'0:11.330',-0.139,-0.387,0.297,98.000
'0:11.340',-0.134,-0.389,0.297,98.000
'0:11.350',-0.129,-0.391,0.297,98.000
'0:11.360',-0.129,-0.392,0.297,98.000
'0:11.370',-0.129,-0.393,0.297,98.000
'0:11.380',-0.130,-0.395,0.297,98.000
'0:11.390',-0.130,-0.396,0.297,98.000
'0:11.400',-0.131,-0.397,0.297,98.000
'0:11.410',-0.130,-0.396,0.297,98.000
'0:11.420',-0.129,-0.395,0.297,98.000
'0:11.430',-0.129,-0.393,0.297,98.000
'0:11.440',-0.128,-0.392,0.297,98.000
'0:11.450',-0.128,-0.391,0.297,98.000
'0:11.460',-0.123,-0.391,0.297,98.000
'0:11.470',-0.119,-0.390,0.297,98.000
'0:11.480',-0.115,-0.390,0.297,98.000
'0:11.490',-0.111,-0.390,0.297,98.000
'0:11.500',-0.106,-0.390,0.298,98.000
'0:11.510',-0.114,-0.392,0.298,98.000
'0:11.520',-0.121,-0.393,0.298,98.000
'0:11.530',-0.129,-0.395,0.298,98.000
'0:11.540',-0.136,-0.396,0.298,98.000
'0:11.550',-0.144,-0.398,0.298,98.000
'0:11.560',-0.143,-0.400,0.298,98.000
'0:11.570',-0.143,-0.403,0.298,98.000
'0:11.580',-0.142,-0.405,0.298,98.000
'0:11.590',-0.142,-0.407,0.297,98.000
'0:11.600',-0.142,-0.409,0.297,98.000
'0:11.610',-0.134,-0.409,0.297,98.000
'0:11.620',-0.127,-0.410,0.296,98.000
'0:11.630',-0.119,-0.410,0.295,98.000
'0:11.640',-0.112,-0.410,0.294,98.000
'0:11.650',-0.105,-0.410,0.294,98.000
'0:11.660',-0.104,-0.409,0.292,98.000
'0:11.670',-0.103,-0.408,0.290,98.000
'0:11.680',-0.102,-0.406,0.289,98.000
'0:11.690',-0.102,-0.405,0.287,98.000
'0:11.700',-0.101,-0.404,0.286,98.000
'0:11.710',-0.105,-0.404,0.284,98.000
'0:11.720',-0.109,-0.403,0.282,98.000
'0:11.730',-0.114,-0.403,0.280,98.000
'0:11.740',-0.118,-0.402,0.278,98.000
'0:11.750',-0.122,-0.402,0.277,98.000
'0:11.760',-0.118,-0.400,0.275,98.000
'0:11.770',-0.115,-0.399,0.273,98.000
'0:11.780',-0.111,-0.397,0.271,98.000
'0:11.790',-0.108,-0.396,0.269,98.000
'0:11.800',-0.104,-0.394,0.268,98.000
'0:11.810',-0.106,-0.393,0.266,98.000
'0:11.820',-0.108,-0.392,0.264,98.000
'0:11.830',-0.109,-0.391,0.262,98.000
'0:11.840',-0.111,-0.389,0.260,98.000
'0:11.850',-0.112,-0.388,0.259,98.000
'0:11.860',-0.115,-0.388,0.257,98.000
'0:11.870',-0.117,-0.388,0.255,98.000
'0:11.880',-0.120,-0.387,0.253,98.000
'0:11.890',-0.122,-0.387,0.251,98.000
'0:11.900',-0.125,-0.387,0.250,98.000
'0:11.910',-0.115,-0.387,0.248,98.000
'0:11.920',-0.106,-0.387,0.246,98.000
'0:11.930',-0.096,-0.387,0.245,98.000
'0:11.940',-0.087,-0.386,0.243,98.000
'0:11.950',-0.077,-0.386,0.241,98.000
'0:11.960',-0.078,-0.385,0.240,98.000
'0:11.970',-0.078,-0.384,0.238,98.000
'0:11.980',-0.079,-0.383,0.236,98.000
'0:11.990',-0.080,-0.382,0.234,98.000
'0:12.000',-0.080,-0.382,0.233,98.000
'0:12.010',-0.079,-0.380,0.231,98.000
'0:12.020',-0.078,-0.378,0.229,98.000
'0:12.030',-0.078,-0.376,0.227,98.000
'0:12.040',-0.077,-0.375,0.225,98.000
'0:12.050',-0.076,-0.373,0.223,98.000
'0:12.060',-0.075,-0.372,0.221,98.000
'0:12.070',-0.075,-0.370,0.219,98.000
'0:12.080',-0.075,-0.369,0.217,98.000
'0:12.090',-0.074,-0.368,0.216,98.000
'0:12.100',-0.074,-0.366,0.214,98.000
'0:12.110',-0.082,-0.364,0.212,98.000
'0:12.120',-0.090,-0.363,0.211,98.000
'0:12.130',-0.098,-0.361,0.209,98.000
'0:12.140',-0.106,-0.359,0.207,98.000
'0:12.150',-0.114,-0.357,0.206,98.000
'0:12.160',-0.113,-0.356,0.204,98.000
'0:12.170',-0.112,-0.355,0.202,98.000
'0:12.180',-0.110,-0.354,0.200,98.000
'0:12.190',-0.109,-0.353,0.198,98.000
'0:12.200',-0.108,-0.352,0.196,98.000
'0:12.210',-0.106,-0.352,0.194,98.000
'0:12.220',-0.105,-0.351,0.193,98.000
'0:12.230',-0.103,-0.350,0.191,98.000
'0:12.240',-0.101,-0.349,0.189,98.000
'0:12.250',-0.100,-0.349,0.187,98.000
'0:12.260',-0.096,-0.347,0.185,98.000
'0:12.270',-0.092,-0.346,0.184,98.000
'0:12.280',-0.087,-0.344,0.182,98.000
'0:12.290',-0.083,-0.342,0.180,98.000
'0:12.300',-0.079,-0.341,0.179,98.000
'0:12.310',-0.077,-0.341,0.177,98.000
'0:12.320',-0.074,-0.341,0.175,98.000
'0:12.330',-0.072,-0.340,0.174,98.000
'0:12.340',-0.070,-0.340,0.172,98.000
'0:12.350',-0.067,-0.340,0.170,98.000
'0:12.360',-0.070,-0.339,0.169,98.000
'0:12.370',-0.072,-0.339,0.168,98.000
'0:12.380',-0.074,-0.338,0.166,98.000
'0:12.390',-0.077,-0.337,0.165,98.000
'0:12.400',-0.079,-0.336,0.163,98.000
'0:12.410',-0.078,-0.334,0.162,98.000
'0:12.420',-0.078,-0.331,0.160,98.000
'0:12.430',-0.077,-0.328,0.159,98.000
'0:12.440',-0.076,-0.326,0.158,98.000
'0:12.450',-0.075,-0.323,0.156,98.000
'0:12.460',-0.077,-0.322,0.155,98.000
'0:12.470',-0.078,-0.321,0.154,98.000
'0:12.480',-0.080,-0.320,0.153,98.000
'0:12.490',-0.081,-0.319,0.151,98.000
'0:12.500',-0.082,-0.318,0.150,98.000
'0:12.510',-0.084,-0.318,0.149,98.000
'0:12.520',-0.086,-0.318,0.148,98.000
'0:12.530',-0.089,-0.318,0.147,98.000
'0:12.540',-0.091,-0.318,0.146,98.000
'0:12.550',-0.093,-0.318,0.145,98.000
'0:12.560',-0.090,-0.319,0.144,98.000
'0:12.570',-0.086,-0.321,0.143,98.000
'0:12.580',-0.083,-0.322,0.142,98.000
'0:12.590',-0.080,-0.323,0.141,98.000
'0:12.600',-0.077,-0.325,0.140,98.000
'0:12.610',-0.073,-0.323,0.139,98.000
'0:12.620',-0.069,-0.322,0.138,98.000
'0:12.630',-0.066,-0.321,0.137,98.000
'0:12.640',-0.062,-0.320,0.136,98.000
'0:12.650',-0.058,-0.319,0.136,98.000
'0:12.660',-0.065,-0.314,0.135,98.000
'0:12.670',-0.071,-0.309,0.134,98.000
'0:12.680',-0.078,-0.304,0.133,98.000
'0:12.690',-0.085,-0.299,0.132,98.000
'0:12.700',-0.092,-0.294,0.131,98.000
'0:12.710',-0.092,-0.294,0.131,98.000
'0:12.720',-0.093,-0.295,0.130,98.000
'0:12.730',-0.094,-0.295,0.129,98.000
'0:12.740',-0.095,-0.295,0.128,98.000
'0:12.750',-0.096,-0.295,0.128,98.000
'0:12.760',-0.094,-0.293,0.127,98.000
'0:12.770',-0.093,-0.292,0.126,98.000
'0:12.780',-0.092,-0.290,0.125,98.000
'0:12.790',-0.090,-0.288,0.124,98.000
'0:12.800',-0.089,-0.286,0.124,98.000
'0:12.810',-0.088,-0.285,0.123,98.000
'0:12.820',-0.086,-0.285,0.122,98.000
'0:12.830',-0.084,-0.284,0.121,98.000
'0:12.840',-0.083,-0.283,0.120,98.000
'0:12.850',-0.081,-0.283,0.120,98.000
'0:12.860',-0.077,-0.283,0.119,98.000
'0:12.870',-0.074,-0.283,0.118,98.000
'0:12.880',-0.070,-0.283,0.117,98.000
'0:12.890',-0.067,-0.283,0.117,98.000
'0:12.900',-0.063,-0.283,0.116,98.000
'0:12.910',-0.071,-0.277,0.115,98.000
'0:12.920',-0.079,-0.271,0.114,98.000
'0:12.930',-0.087,-0.264,0.113,98.000
'0:12.940',-0.095,-0.258,0.112,98.000
'0:12.950',-0.103,-0.251,0.111,98.000
'0:12.960',-0.108,-0.245,0.110,98.000
'0:12.970',-0.113,-0.239,0.109,98.000
'0:12.980',-0.119,-0.233,0.109,98.000
'0:12.990',-0.124,-0.228,0.108,98.000
'0:13.000',-0.130,-0.222,0.107,98.000
'0:13.010',-0.125,-0.221,0.106,98.000
'0:13.020',-0.120,-0.221,0.105,98.000
'0:13.030',-0.116,-0.220,0.104,98.000
'0:13.040',-0.111,-0.220,0.104,98.000
'0:13.050',-0.106,-0.219,0.103,98.000
'0:13.060',-0.103,-0.221,0.102,98.000
'0:13.070',-0.100,-0.222,0.101,98.000
'0:13.080',-0.097,-0.223,0.100,98.000
'0:13.090',-0.093,-0.225,0.100,98.000
'0:13.100',-0.090,-0.226,0.099,98.000
'0:13.110',-0.093,-0.221,0.098,98.000
'0:13.120',-0.097,-0.216,0.097,98.000
'0:13.130',-0.100,-0.212,0.096,98.000
'0:13.140',-0.104,-0.207,0.095,98.000
'0:13.150',-0.107,-0.202,0.095,98.000
'0:13.160',-0.104,-0.202,0.094,98.000
'0:13.170',-0.101,-0.201,0.093,98.000
'0:13.180',-0.099,-0.201,0.092,98.000
'0:13.190',-0.096,-0.200,0.092,98.000
'0:13.200',-0.093,-0.200,0.091,98.000
'0:13.210',-0.088,-0.201,0.090,98.000
'0:13.220',-0.083,-0.203,0.089,98.000
'0:13.230',-0.078,-0.204,0.089,98.000
'0:13.240',-0.073,-0.206,0.088,98.000
'0:13.250',-0.068,-0.208,0.087,98.000
'0:13.260',-0.064,-0.210,0.087,98.000
'0:13.270',-0.060,-0.212,0.086,98.000
'0:13.280',-0.057,-0.215,0.085,98.000
'0:13.290',-0.053,-0.217,0.085,98.000
'0:13.300',-0.049,-0.219,0.084,98.000
'0:13.310',-0.054,-0.216,0.084,98.000
'0:13.320',-0.059,-0.213,0.083,98.000
'0:13.330',-0.064,-0.209,0.083,98.000
'0:13.340',-0.069,-0.206,0.082,98.000
'0:13.350',-0.074,-0.203,0.082,98.000
'0:13.360',-0.083,-0.194,0.081,98.000
'0:13.370',-0.092,-0.185,0.081,98.000
'0:13.380',-0.102,-0.176,0.081,98.000
'0:13.390',-0.111,-0.167,0.080,98.000
'0:13.400',-0.120,-0.158,0.080,98.000
'0:13.410',-0.119,-0.161,0.080,98.000
'0:13.420',-0.117,-0.163,0.079,98.000
'0:13.430',-0.116,-0.165,0.079,98.000
'0:13.440',-0.114,-0.167,0.079,98.000
'0:13.450',-0.113,-0.169,0.079,98.000
'0:13.460',-0.109,-0.172,0.079,98.000
'0:13.470',-0.106,-0.175,0.078,98.000
'0:13.480',-0.103,-0.179,0.078,98.000
'0:13.490',-0.099,-0.182,0.078,98.000
'0:13.500',-0.096,-0.185,0.078,98.000
'0:13.510',-0.093,-0.191,0.079,98.000
'0:13.520',-0.091,-0.196,0.079,98.000
'0:13.530',-0.088,-0.201,0.080,98.000
'0:13.540',-0.086,-0.206,0.080,98.000
'0:13.550',-0.084,-0.212,0.080,98.000
'0:13.560',-0.084,-0.217,0.081,98.000
'0:13.570',-0.084,-0.222,0.082,98.000
'0:13.580',-0.084,-0.228,0.083,98.000
'0:13.590',-0.084,-0.233,0.084,98.000
'0:13.600',-0.084,-0.238,0.086,98.000
'0:13.610',-0.084,-0.238,0.087,98.000
'0:13.620',-0.083,-0.239,0.089,98.000
'0:13.630',-0.083,-0.239,0.090,98.000
'0:13.640',-0.083,-0.239,0.092,98.000
'0:13.650',-0.082,-0.239,0.093,98.000
'0:13.660',-0.084,-0.240,0.095,98.000
'0:13.670',-0.086,-0.241,0.097,98.000
'0:13.680',-0.087,-0.242,0.099,98.000
'0:13.690',-0.089,-0.243,0.100,98.000
'0:13.700',-0.091,-0.244,0.102,98.000
'0:13.710',-0.091,-0.246,0.104,98.000
'0:13.720',-0.092,-0.248,0.106,98.000
'0:13.730',-0.092,-0.251,0.108,98.000
'0:13.740',-0.092,-0.253,0.110,98.000
'0:13.750',-0.093,-0.255,0.112,98.000
'0:13.760',-0.093,-0.255,0.113,98.000
'0:13.770',-0.093,-0.255,0.115,98.000
'0:13.780',-0.094,-0.255,0.117,98.000
'0:13.790',-0.094,-0.255,0.119,98.000
'0:13.800',-0.094,-0.255,0.120,98.000
'0:13.810',-0.097,-0.254,0.122,98.000
'0:13.820',-0.100,-0.254,0.124,98.000
'0:13.830',-0.103,-0.254,0.125,98.000
'0:13.840',-0.106,-0.254,0.127,98.000
'0:13.850',-0.109,-0.254,0.129,98.000
'0:13.860',-0.109,-0.256,0.130,98.000
'0:13.870',-0.108,-0.259,0.132,98.000
'0:13.880',-0.108,-0.262,0.134,98.000
'0:13.890',-0.107,-0.264,0.135,98.000
'0:13.900',-0.107,-0.267,0.137,98.000
'0:13.910',-0.100,-0.272,0.138,98.000
'0:13.920',-0.093,-0.278,0.140,98.000
'0:13.930',-0.086,-0.283,0.141,98.000
'0:13.940',-0.079,-0.288,0.143,98.000
'0:13.950',-0.072,-0.293,0.144,98.000
'0:13.960',-0.071,-0.293,0.146,98.000
'0:13.970',-0.071,-0.292,0.147,98.000
'0:13.980',-0.071,-0.292,0.149,98.000
'0:13.990',-0.071,-0.291,0.150,98.000
'0:14.000',-0.071,-0.290,0.151,98.000
'0:14.010',-0.077,-0.287,0.153,98.000
'0:14.020',-0.084,-0.283,0.154,98.000
'0:14.030',-0.091,-0.280,0.156,98.000
'0:14.040',-0.097,-0.276,0.157,98.000
'0:14.050',-0.104,-0.273,0.158,98.000
'0:14.060',-0.105,-0.273,0.160,98.000
'0:14.070',-0.106,-0.273,0.161,98.000
'0:14.080',-0.107,-0.273,0.162,98.000
'0:14.090',-0.109,-0.273,0.164,98.000
'0:14.100',-0.110,-0.273,0.165,98.000
'0:14.110',-0.113,-0.272,0.166,98.000
'0:14.120',-0.116,-0.271,0.167,98.000
'0:14.130',-0.119,-0.270,0.168,98.000
'0:14.140',-0.122,-0.268,0.170,98.000
'0:14.150',-0.125,-0.267,0.171,98.000
'0:14.160',-0.121,-0.271,0.172,98.000
'0:14.170',-0.117,-0.274,0.173,98.000
'0:14.180',-0.113,-0.277,0.174,98.000
'0:14.190',-0.109,-0.281,0.176,98.000
'0:14.200',-0.105,-0.284,0.177,98.000
'0:14.210',-0.104,-0.284,0.178,98.000
'0:14.220',-0.104,-0.285,0.179,98.000
'0:14.230',-0.104,-0.285,0.180,98.000
'0:14.240',-0.103,-0.285,0.181,98.000
'0:14.250',-0.103,-0.285,0.183,98.000
'0:14.260',-0.102,-0.287,0.183,98.000
'0:14.270',-0.100,-0.288,0.184,98.000
'0:14.280',-0.099,-0.289,0.185,98.000
'0:14.290',-0.098,-0.291,0.186,98.000
'0:14.300',-0.096,-0.292,0.187,98.000
'0:14.310',-0.093,-0.294,0.188,98.000
'0:14.320',-0.089,-0.297,0.189,98.000
'0:14.330',-0.086,-0.299,0.190,98.000
'0:14.340',-0.082,-0.301,0.191,98.000
'0:14.350',-0.079,-0.303,0.192,98.000
'0:14.360',-0.086,-0.299,0.193,98.000
'0:14.370',-0.092,-0.295,0.194,98.000
'0:14.380',-0.099,-0.292,0.195,98.000
'0:14.390',-0.106,-0.288,0.195,98.000
'0:14.400',-0.113,-0.284,0.196,98.000
'0:14.410',-0.118,-0.281,0.197,98.000
'0:14.420',-0.122,-0.278,0.198,98.000
'0:14.430',-0.127,-0.276,0.199,98.000
'0:14.440',-0.132,-0.273,0.200,98.000
'0:14.450',-0.137,-0.271,0.201,98.000
'0:14.460',-0.138,-0.270,0.202,98.000
'0:14.470',-0.139,-0.270,0.203,98.000
'0:14.480',-0.140,-0.269,0.203,98.000
'0:14.490',-0.142,-0.269,0.204,98.000
'0:14.500',-0.143,-0.269,0.205,98.000
'0:14.510',-0.133,-0.277,0.206,98.000
'0:14.520',-0.122,-0.285,0.207,98.000
'0:14.530',-0.112,-0.293,0.208,98.000
'0:14.540',-0.102,-0.301,0.209,98.000
'0:14.550',-0.092,-0.309,0.209,98.000
'0:14.560',-0.089,-0.313,0.210,98.000
'0:14.570',-0.086,-0.317,0.211,98.000
'0:14.580',-0.084,-0.321,0.212,98.000
'0:14.590',-0.081,-0.326,0.213,98.000
'0:14.600',-0.078,-0.330,0.214,98.000
'0:14.610',-0.084,-0.327,0.215,98.000
'0:14.620',-0.090,-0.325,0.215,98.000
'0:14.630',-0.095,-0.322,0.216,98.000
'0:14.640',-0.101,-0.319,0.217,98.000
'0:14.650',-0.107,-0.317,0.217,98.000
'0:14.660',-0.100,-0.319,0.218,98.000
'0:14.670',-0.094,-0.321,0.219,98.000
'0:14.680',-0.087,-0.324,0.220,98.000
'0:14.690',-0.081,-0.326,0.221,98.000
'0:14.700',-0.074,-0.329,0.221,98.000
'0:14.710',-0.077,-0.328,0.222,98.000
'0:14.720',-0.080,-0.327,0.223,98.000
'0:14.730',-0.083,-0.326,0.223,98.000
'0:14.740',-0.085,-0.325,0.224,98.000
'0:14.750',-0.088,-0.324,0.225,98.000
'0:14.760',-0.091,-0.324,0.226,98.000
'0:14.770',-0.095,-0.324,0.226,98.000
'0:14.780',-0.098,-0.323,0.227,98.000
'0:14.790',-0.101,-0.323,0.227,98.000
'0:14.800',-0.104,-0.323,0.228,98.000
'0:14.810',-0.100,-0.324,0.229,98.000
'0:14.820',-0.095,-0.325,0.229,98.000
'0:14.830',-0.091,-0.326,0.230,98.000
'0:14.840',-0.086,-0.327,0.230,98.000
'0:14.850',-0.082,-0.328,0.231,98.000
'0:14.860',-0.093,-0.324,0.231,98.000
'0:14.870',-0.104,-0.320,0.232,98.000
'0:14.880',-0.116,-0.316,0.232,98.000
'0:14.890',-0.127,-0.312,0.233,98.000
'0:14.900',-0.138,-0.307,0.233,98.000
'0:14.910',-0.136,-0.310,0.233,98.000
'0:14.920',-0.133,-0.313,0.234,98.000
'0:14.930',-0.131,-0.316,0.234,98.000
'0:14.940',-0.128,-0.319,0.235,98.000
'0:14.950',-0.126,-0.322,0.235,98.000
'0:14.960',-0.120,-0.323,0.235,98.000
'0:14.970',-0.115,-0.324,0.235,98.000
'0:14.980',-0.109,-0.326,0.236,98.000
'0:14.990',-0.104,-0.327,0.236,98.000
'0:15.000',-0.099,-0.328,0.236,98.000
'0:15.010',-0.101,-0.325,0.236,98.000
'0:15.020',-0.103,-0.323,0.237,98.000
'0:15.030',-0.106,-0.321,0.237,98.000
'0:15.040',-0.108,-0.319,0.237,98.000
'0:15.050',-0.111,-0.316,0.238,98.000
'0:15.060',-0.101,-0.319,0.237,98.000
'0:15.070',-0.091,-0.321,0.237,98.000
'0:15.080',-0.081,-0.324,0.237,98.000
'0:15.090',-0.071,-0.326,0.237,98.000
'0:15.100',-0.061,-0.329,0.237,98.000
'0:15.110',-0.062,-0.328,0.236,98.000
'0:15.120',-0.063,-0.327,0.235,98.000
'0:15.130',-0.063,-0.326,0.234,98.000
'0:15.140',-0.064,-0.325,0.233,98.000
'0:15.150',-0.064,-0.325,0.232,98.000
'0:15.160',-0.063,-0.325,0.231,98.000
'0:15.170',-0.062,-0.324,0.230,98.000
'0:15.180',-0.061,-0.324,0.229,98.000
'0:15.190',-0.060,-0.324,0.227,98.000
'0:15.200',-0.059,-0.324,0.226,98.000
'0:15.210',-0.061,-0.323,0.225,98.000
'0:15.220',-0.063,-0.323,0.223,98.000
'0:15.230',-0.064,-0.323,0.222,98.000
'0:15.240',-0.066,-0.323,0.220,98.000
'0:15.250',-0.068,-0.322,0.219,98.000
'0:15.260',-0.070,-0.322,0.217,98.000
'0:15.270',-0.073,-0.322,0.216,98.000
'0:15.280',-0.076,-0.322,0.214,98.000
'0:15.290',-0.079,-0.322,0.213,98.000
'0:15.300',-0.082,-0.322,0.211,98.000
'0:15.310',-0.077,-0.321,0.210,98.000
'0:15.320',-0.073,-0.321,0.209,98.000
'0:15.330',-0.068,-0.320,0.208,98.000
'0:15.340',-0.064,-0.320,0.207,98.000
'0:15.350',-0.059,-0.320,0.205,98.000
'0:15.360',-0.060,-0.318,0.205,98.000
'0:15.370',-0.061,-0.317,0.204,98.000
'0:15.380',-0.062,-0.316,0.204,98.000
'0:15.390',-0.063,-0.314,0.203,98.000
'0:15.400',-0.065,-0.313,0.203,98.000
'0:15.410',-0.070,-0.314,0.203,98.000
'0:15.420',-0.074,-0.315,0.203,98.000
'0:15.430',-0.080,-0.316,0.204,98.000
'0:15.440',-0.085,-0.317,0.204,98.000
'0:15.450',-0.090,-0.318,0.204,98.000
'0:15.460',-0.092,-0.320,0.205,98.000
'0:15.470',-0.094,-0.323,0.205,98.000
'0:15.480',-0.096,-0.326,0.205,98.000
'0:15.490',-0.098,-0.328,0.206,98.000
'0:15.500',-0.101,-0.331,0.206,98.000
'0:15.510',-0.103,-0.331,0.207,98.000
'0:15.520',-0.106,-0.331,0.207,98.000
'0:15.530',-0.108,-0.332,0.208,98.000
'0:15.540',-0.111,-0.332,0.209,98.000
'0:15.550',-0.113,-0.332,0.209,98.000
'0:15.560',-0.116,-0.331,0.210,98.000
'0:15.570',-0.119,-0.330,0.211,98.000
'0:15.580',-0.122,-0.329,0.212,98.000
'0:15.590',-0.124,-0.328,0.213,98.000
'0:15.600',-0.127,-0.327,0.214,98.000
'0:15.610',-0.122,-0.329,0.215,98.000
'0:15.620',-0.116,-0.331,0.216,98.000
'0:15.630',-0.111,-0.332,0.218,98.000
'0:15.640',-0.105,-0.334,0.219,98.000
'0:15.650',-0.099,-0.336,0.220,98.000
'0:15.660',-0.099,-0.335,0.221,98.000
'0:15.670',-0.099,-0.335,0.222,98.000
'0:15.680',-0.099,-0.335,0.223,98.000
'0:15.690',-0.099,-0.334,0.225,98.000
'0:15.700',-0.099,-0.334,0.226,98.000
'0:15.710',-0.099,-0.334,0.227,98.000
'0:15.720',-0.099,-0.334,0.227,98.000
'0:15.730',-0.099,-0.334,0.228,98.000
'0:15.740',-0.099,-0.334,0.229,98.000
'0:15.750',-0.099,-0.333,0.230,98.000
'0:15.760',-0.097,-0.333,0.231,98.000
'0:15.770',-0.096,-0.333,0.232,98.000
'0:15.780',-0.094,-0.332,0.233,98.000
'0:15.790',-0.093,-0.332,0.234,98.000
'0:15.800',-0.092,-0.331,0.235,98.000
'0:15.810',-0.087,-0.332,0.235,98.000
'0:15.820',-0.083,-0.333,0.236,98.000
'0:15.830',-0.079,-0.333,0.237,98.000
'0:15.840',-0.075,-0.334,0.238,98.000
'0:15.850',-0.070,-0.334,0.238,98.000
'0:15.860',-0.073,-0.332,0.239,98.000
'0:15.870',-0.076,-0.331,0.240,98.000
'0:15.880',-0.079,-0.329,0.240,98.000
'0:15.890',-0.082,-0.327,0.241,98.000
'0:15.900',-0.085,-0.325,0.241,98.000
'0:15.910',-0.092,-0.322,0.242,98.000
'0:15.920',-0.098,-0.319,0.242,98.000
'0:15.930',-0.105,-0.316,0.243,98.000
'0:15.940',-0.111,-0.313,0.244,98.000
'0:15.950',-0.118,-0.310,0.244,98.000
'0:15.960',-0.120,-0.305,0.245,98.000
'0:15.970',-0.122,-0.301,0.245,98.000
'0:15.980',-0.124,-0.297,0.246,98.000
'0:15.990',-0.127,-0.292,0.246,98.000
'0:16.000',-0.129,-0.288,0.247,98.000
'0:16.010',-0.137,-0.279,0.247,98.000
'0:16.020',-0.146,-0.271,0.248,98.000
'0:16.030',-0.154,-0.262,0.248,98.000
'0:16.040',-0.163,-0.254,0.249,98.000
'0:16.050',-0.171,-0.245,0.249,98.000
'0:16.060',-0.164,-0.246,0.250,98.000
'0:16.070',-0.158,-0.246,0.250,98.000
'0:16.080',-0.151,-0.246,0.251,98.000
'0:16.090',-0.145,-0.247,0.251,98.000
'0:16.100',-0.138,-0.247,0.251,98.000
'0:16.110',-0.142,-0.244,0.252,98.000
'0:16.120',-0.145,-0.240,0.252,98.000
'0:16.130',-0.149,-0.237,0.253,98.000
'0:16.140',-0.152,-0.233,0.253,98.000
'0:16.150',-0.156,-0.230,0.254,98.000
'0:16.160',-0.164,-0.226,0.254,98.000
'0:16.170',-0.172,-0.222,0.255,98.000
'0:16.180',-0.180,-0.218,0.255,98.000
'0:16.190',-0.188,-0.214,0.256,98.000
'0:16.200',-0.196,-0.210,0.256,98.000
'0:16.210',-0.196,-0.212,0.256,98.000
'0:16.220',-0.195,-0.214,0.257,98.000
'0:16.230',-0.195,-0.216,0.257,98.000
'0:16.240',-0.195,-0.219,0.257,98.000
'0:16.250',-0.194,-0.221,0.258,98.000
'0:16.260',-0.192,-0.221,0.258,98.000
'0:16.270',-0.189,-0.222,0.259,98.000
'0:16.280',-0.187,-0.223,0.259,98.000
'0:16.290',-0.184,-0.223,0.259,98.000
'0:16.300',-0.182,-0.224,0.260,98.000
'0:16.310',-0.178,-0.221,0.260,98.000
'0:16.320',-0.173,-0.218,0.260,98.000
'0:16.330',-0.169,-0.215,0.261,98.000
'0:16.340',-0.165,-0.212,0.261,98.000
'0:16.350',-0.160,-0.209,0.261,98.000
'0:16.360',-0.165,-0.205,0.262,98.000
'0:16.370',-0.169,-0.202,0.262,98.000
'0:16.380',-0.173,-0.198,0.262,98.000
'0:16.390',-0.178,-0.195,0.262,98.000
'0:16.400',-0.182,-0.191,0.263,98.000
'0:16.410',-0.187,-0.191,0.263,98.000
'0:16.420',-0.192,-0.192,0.263,98.000
'0:16.430',-0.196,-0.192,0.263,98.000
'0:16.440',-0.201,-0.192,0.264,98.000
'0:16.450',-0.205,-0.193,0.264,98.000
'0:16.460',-0.203,-0.198,0.264,98.000
'0:16.470',-0.201,-0.203,0.264,98.000
'0:16.480',-0.199,-0.208,0.264,98.000
'0:16.490',-0.197,-0.213,0.264,98.000
'0:16.500',-0.195,-0.218,0.265,98.000
'0:16.510',-0.185,-0.227,0.265,98.000
'0:16.520',-0.175,-0.237,0.265,98.000
'0:16.530',-0.165,-0.246,0.265,98.000
'0:16.540',-0.155,-0.256,0.265,98.000
'0:16.550',-0.145,-0.265,0.265,98.000
'0:16.560',-0.150,-0.265,0.265,98.000
'0:16.570',-0.156,-0.265,0.265,98.000
'0:16.580',-0.161,-0.265,0.265,98.000
'0:16.590',-0.166,-0.265,0.265,98.000
'0:16.600',-0.171,-0.265,0.266,98.000
'0:16.610',-0.174,-0.266,0.266,98.000
'0:16.620',-0.177,-0.268,0.266,98.000
'0:16.630',-0.181,-0.269,0.266,98.000
'0:16.640',-0.184,-0.270,0.266,98.000
'0:16.650',-0.187,-0.272,0.266,98.000
'0:16.660',-0.182,-0.277,0.266,98.000
'0:16.670',-0.176,-0.283,0.266,98.000
'0:16.680',-0.170,-0.288,0.266,98.000
'0:16.690',-0.165,-0.294,0.266,98.000
'0:16.700',-0.159,-0.300,0.266,98.000
'0:16.710',-0.154,-0.304,0.266,98.000
'0:16.720',-0.149,-0.309,0.266,98.000
'0:16.730',-0.145,-0.314,0.265,98.000
'0:16.740',-0.140,-0.318,0.265,98.000
'0:16.750',-0.136,-0.323,0.265,98.000
'0:16.760',-0.133,-0.327,0.265,98.000
'0:16.770',-0.130,-0.331,0.265,98.000
'0:16.780',-0.127,-0.335,0.265,98.000
'0:16.790',-0.124,-0.339,0.265,98.000
'0:16.800',-0.121,-0.343,0.265,98.000
'0:16.810',-0.119,-0.343,0.265,98.000
'0:16.820',-0.117,-0.344,0.265,98.000
'0:16.830',-0.115,-0.344,0.265,98.000
'0:16.840',-0.113,-0.345,0.265,98.000
'0:16.850',-0.111,-0.346,0.265,98.000
'0:16.860',-0.106,-0.347,0.265,98.000
'0:16.870',-0.101,-0.348,0.265,98.000
'0:16.880',-0.096,-0.349,0.265,98.000
'0:16.890',-0.091,-0.351,0.265,98.000
'0:16.900',-0.086,-0.352,0.265,98.000
'0:16.910',-0.088,-0.351,0.265,98.000
'0:16.920',-0.090,-0.351,0.265,98.000
'0:16.930',-0.093,-0.350,0.265,98.000
'0:16.940',-0.095,-0.349,0.264,98.000
'0:16.950',-0.098,-0.348,0.264,98.000
'0:16.960',-0.097,-0.348,0.263,98.000
'0:16.970',-0.096,-0.348,0.262,98.000
'0:16.980',-0.095,-0.348,0.261,98.000
'0:16.990',-0.094,-0.348,0.260,98.000
'0:17.000',-0.093,-0.347,0.259,98.000
'0:17.010',-0.091,-0.347,0.257,98.000
'0:17.020',-0.088,-0.347,0.255,98.000
'0:17.030',-0.086,-0.347,0.253,98.000
'0:17.040',-0.083,-0.347,0.252,98.000
'0:17.050',-0.081,-0.346,0.250,98.000
'0:17.060',-0.085,-0.346,0.248,98.000
'0:17.070',-0.090,-0.345,0.246,98.000
'0:17.080',-0.095,-0.344,0.244,98.000
'0:17.090',-0.099,-0.344,0.242,98.000
'0:17.100',-0.104,-0.343,0.240,98.000
'0:17.110',-0.104,-0.342,0.238,98.000
'0:17.120',-0.104,-0.342,0.236,98.000
'0:17.130',-0.104,-0.341,0.234,98.000
'0:17.140',-0.104,-0.340,0.232,98.000
'0:17.150',-0.104,-0.340,0.230,98.000
'0:17.160',-0.096,-0.340,0.228,98.000
'0:17.170',-0.089,-0.340,0.226,98.000
'0:17.180',-0.081,-0.340,0.224,98.000
'0:17.190',-0.074,-0.340,0.222,98.000
'0:17.200',-0.066,-0.340,0.220,98.000
'0:17.210',-0.064,-0.340,0.218,98.000
'0:17.220',-0.061,-0.340,0.216,98.000
'0:17.230',-0.059,-0.340,0.214,98.000
'0:17.240',-0.056,-0.340,0.212,98.000
'0:17.250',-0.054,-0.340,0.211,98.000
'0:17.260',-0.056,-0.341,0.209,98.000
'0:17.270',-0.059,-0.341,0.208,98.000
'0:17.280',-0.062,-0.342,0.206,98.000
'0:17.290',-0.064,-0.343,0.204,98.000
'0:17.300',-0.067,-0.343,0.203,98.000
'0:17.310',-0.068,-0.342,0.201,98.000
'0:17.320',-0.070,-0.342,0.200,98.000
'0:17.330',-0.071,-0.341,0.198,98.000
'0:17.340',-0.072,-0.340,0.196,98.000
'0:17.350',-0.074,-0.339,0.195,98.000
'0:17.360',-0.081,-0.337,0.193,98.000
'0:17.370',-0.088,-0.334,0.191,98.000
'0:17.380',-0.095,-0.331,0.190,98.000
'0:17.390',-0.103,-0.328,0.188,98.000
'0:17.400',-0.110,-0.326,0.187,98.000
'0:17.410',-0.107,-0.328,0.186,98.000
'0:17.420',-0.105,-0.330,0.185,98.000
'0:17.430',-0.102,-0.332,0.183,98.000
'0:17.440',-0.099,-0.334,0.182,98.000
'0:17.450',-0.097,-0.336,0.181,98.000
'0:17.460',-0.088,-0.339,0.180,98.000
'0:17.470',-0.079,-0.342,0.179,98.000
'0:17.480',-0.070,-0.344,0.178,98.000
'0:17.490',-0.061,-0.347,0.177,98.000
'0:17.500',-0.052,-0.350,0.176,98.000
'0:17.510',-0.059,-0.348,0.175,98.000
'0:17.520',-0.066,-0.347,0.174,98.000
'0:17.530',-0.073,-0.346,0.173,98.000
'0:17.540',-0.080,-0.345,0.172,98.000
'0:17.550',-0.086,-0.344,0.171,98.000
'0:17.560',-0.085,-0.343,0.170,98.000
'0:17.570',-0.084,-0.342,0.169,98.000
'0:17.580',-0.082,-0.341,0.168,98.000
'0:17.590',-0.081,-0.340,0.167,98.000
'0:17.600',-0.080,-0.339,0.167,98.000
'0:17.610',-0.075,-0.339,0.166,98.000
'0:17.620',-0.070,-0.339,0.165,98.000
'0:17.630',-0.065,-0.339,0.164,98.000
'0:17.640',-0.060,-0.339,0.163,98.000
'0:17.650',-0.056,-0.339,0.162,98.000
'0:17.660',-0.060,-0.338,0.161,98.000
'0:17.670',-0.065,-0.338,0.160,98.000
'0:17.680',-0.069,-0.337,0.160,98.000
'0:17.690',-0.074,-0.336,0.159,98.000
'0:17.700',-0.078,-0.335,0.158,98.000
'0:17.710',-0.081,-0.334,0.157,98.000
'0:17.720',-0.083,-0.332,0.156,98.000
'0:17.730',-0.085,-0.330,0.155,98.000
'0:17.740',-0.088,-0.329,0.154,98.000
'0:17.750',-0.090,-0.327,0.153,98.000
'0:17.760',-0.087,-0.327,0.152,98.000
'0:17.770',-0.085,-0.327,0.151,98.000
'0:17.780',-0.082,-0.328,0.150,98.000
'0:17.790',-0.080,-0.328,0.149,98.000
'0:17.800',-0.077,-0.328,0.148,98.000
'0:17.810',-0.073,-0.328,0.147,98.000
'0:17.820',-0.069,-0.328,0.146,98.000
'0:17.830',-0.065,-0.328,0.145,98.000
'0:17.840',-0.061,-0.327,0.144,98.000
'0:17.850',-0.058,-0.327,0.143,98.000
'0:17.860',-0.056,-0.327,0.142,98.000
'0:17.870',-0.054,-0.326,0.141,98.000
'0:17.880',-0.053,-0.325,0.140,98.000
'0:17.890',-0.051,-0.324,0.139,98.000
'0:17.900',-0.050,-0.323,0.138,98.000
'0:17.910',-0.053,-0.322,0.136,98.000
'0:17.920',-0.056,-0.321,0.135,98.000
'0:17.930',-0.059,-0.320,0.134,98.000
'0:17.940',-0.062,-0.319,0.133,98.000
'0:17.950',-0.065,-0.318,0.132,98.000
'0:17.960',-0.067,-0.316,0.130,98.000
'0:17.970',-0.069,-0.315,0.129,98.000
'0:17.980',-0.071,-0.313,0.128,98.000
'0:17.990',-0.072,-0.312,0.126,98.000
'0:18.000',-0.074,-0.310,0.125,98.000
'0:18.010',-0.073,-0.308,0.124,98.000
'0:18.020',-0.072,-0.307,0.122,98.000
'0:18.030',-0.070,-0.305,0.120,98.000
'0:18.040',-0.069,-0.303,0.119,98.000
'0:18.050',-0.068,-0.302,0.117,98.000
'0:18.060',-0.071,-0.300,0.116,98.000
'0:18.070',-0.073,-0.298,0.114,98.000
'0:18.080',-0.076,-0.297,0.112,98.000
'0:18.090',-0.079,-0.295,0.110,98.000
'0:18.100',-0.081,-0.294,0.108,98.000
'0:18.110',-0.078,-0.294,0.106,98.000
'0:18.120',-0.074,-0.294,0.104,98.000
'0:18.130',-0.071,-0.294,0.102,98.000
'0:18.140',-0.067,-0.294,0.100,98.000
'0:18.150',-0.064,-0.294,0.098,98.000
'0:18.160',-0.063,-0.292,0.096,98.000
'0:18.170',-0.062,-0.291,0.094,98.000
'0:18.180',-0.061,-0.289,0.092,98.000
'0:18.190',-0.060,-0.288,0.090,98.000
'0:18.200',-0.060,-0.286,0.088,98.000
'0:18.210',-0.066,-0.284,0.086,98.000
'0:18.220',-0.073,-0.282,0.083,98.000
'0:18.230',-0.079,-0.280,0.081,98.000
'0:18.240',-0.086,-0.278,0.079,98.000
'0:18.250',-0.092,-0.276,0.077,98.000
'0:18.260',-0.093,-0.275,0.074,98.000
'0:18.270',-0.093,-0.273,0.072,98.000
'0:18.280',-0.093,-0.272,0.070,98.000
'0:18.290',-0.094,-0.270,0.068,98.000
'0:18.300',-0.094,-0.268,0.066,98.000
'0:18.310',-0.085,-0.269,0.064,98.000
'0:18.320',-0.076,-0.269,0.062,98.000
'0:18.330',-0.067,-0.270,0.060,98.000
'0:18.340',-0.058,-0.271,0.058,98.000
'0:18.350',-0.048,-0.271,0.057,98.000
'0:18.360',-0.044,-0.274,0.055,98.000
'0:18.370',-0.040,-0.276,0.053,98.000
'0:18.380',-0.035,-0.278,0.051,98.000
'0:18.390',-0.031,-0.280,0.050,98.000
'0:18.400',-0.026,-0.283,0.048,98.000
'0:18.410',-0.032,-0.282,0.047,98.000
'0:18.420',-0.038,-0.282,0.045,98.000
'0:18.430',-0.043,-0.282,0.044,98.000
'0:18.440',-0.049,-0.282,0.042,98.000
'0:18.450',-0.054,-0.281,0.041,98.000
'0:18.460',-0.055,-0.279,0.039,98.000
'0:18.470',-0.055,-0.277,0.038,98.000
'0:18.480',-0.056,-0.275,0.036,98.000
'0:18.490',-0.056,-0.273,0.035,98.000
'0:18.500',-0.057,-0.271,0.033,98.000
'0:18.510',-0.058,-0.269,0.032,98.000
'0:18.520',-0.059,-0.266,0.030,98.000
'0:18.530',-0.060,-0.263,0.029,98.000
'0:18.540',-0.061,-0.260,0.028,98.000
'0:18.550',-0.062,-0.257,0.026,98.000
'0:18.560',-0.058,-0.256,0.025,98.000
'0:18.570',-0.055,-0.256,0.023,98.000
'0:18.580',-0.051,-0.256,0.022,98.000
'0:18.590',-0.048,-0.255,0.020,98.000
'0:18.600',-0.044,-0.255,0.019,98.000
'0:18.610',-0.045,-0.252,0.017,98.000
'0:18.620',-0.045,-0.248,0.015,98.000
'0:18.630',-0.046,-0.245,0.014,98.000
'0:18.640',-0.046,-0.242,0.012,98.000
'0:18.650',-0.047,-0.239,0.010,98.000
'0:18.660',-0.058,-0.230,0.009,98.000
'0:18.670',-0.069,-0.221,0.007,98.000
'0:18.680',-0.080,-0.212,0.005,98.000
'0:18.690',-0.091,-0.203,0.003,98.000
'0:18.700',-0.103,-0.193,0.002,98.000
'0:18.710',-0.098,-0.194,-0.000,98.000
'0:18.720',-0.094,-0.195,-0.002,98.000
'0:18.730',-0.089,-0.196,-0.004,98.000
'0:18.740',-0.085,-0.197,-0.006,98.000
'0:18.750',-0.081,-0.199,-0.008,98.000
'0:18.760',-0.070,-0.202,-0.010,98.000
'0:18.770',-0.060,-0.205,-0.012,98.000
'0:18.780',-0.050,-0.209,-0.014,98.000
'0:18.790',-0.040,-0.212,-0.016,98.000
'0:18.800',-0.030,-0.216,-0.019,98.000
'0:18.810',-0.035,-0.208,-0.021,98.000
'0:18.820',-0.041,-0.201,-0.023,98.000
'0:18.830',-0.046,-0.194,-0.025,98.000
'0:18.840',-0.052,-0.186,-0.028,98.000
'0:18.850',-0.057,-0.179,-0.030,98.000
'0:18.860',-0.059,-0.175,-0.032,98.000
'0:18.870',-0.060,-0.171,-0.035,98.000
'0:18.880',-0.061,-0.166,-0.037,98.000
'0:18.890',-0.062,-0.162,-0.040,98.000
'0:18.900',-0.063,-0.158,-0.042,98.000
'0:18.910',-0.063,-0.155,-0.045,98.000
'0:18.920',-0.063,-0.152,-0.047,98.000
'0:18.930',-0.063,-0.149,-0.050,98.000
'0:18.940',-0.063,-0.146,-0.052,98.000
'0:18.950',-0.063,-0.143,-0.055,98.000
'0:18.960',-0.069,-0.139,-0.058,97.000
'0:18.970',-0.075,-0.134,-0.060,97.000
'0:18.980',-0.082,-0.129,-0.063,97.000
'0:18.990',-0.088,-0.125,-0.066,97.000
'0:19.000',-0.094,-0.120,-0.068,97.000
'0:19.010',-0.088,-0.117,-0.071,97.000
'0:19.020',-0.082,-0.114,-0.073,97.000
'0:19.030',-0.076,-0.111,-0.076,97.000
'0:19.040',-0.071,-0.108,-0.079,97.000
'0:19.050',-0.065,-0.105,-0.081,97.000
'0:19.060',-0.060,-0.102,-0.084,97.000
'0:19.070',-0.055,-0.099,-0.087,97.000
'0:19.080',-0.050,-0.096,-0.089,97.000
'0:19.090',-0.045,-0.093,-0.092,97.000
'0:19.100',-0.040,-0.090,-0.095,97.000
'0:19.110',-0.038,-0.087,-0.098,97.000
'0:19.120',-0.035,-0.085,-0.100,97.000
'0:19.130',-0.033,-0.082,-0.103,97.000
'0:19.140',-0.031,-0.080,-0.106,97.000
'0:19.150',-0.028,-0.077,-0.108,97.000
'0:19.160',-0.029,-0.074,-0.111,97.000
'0:19.170',-0.030,-0.071,-0.114,97.000
'0:19.180',-0.031,-0.068,-0.116,97.000
'0:19.190',-0.032,-0.065,-0.119,97.000
'0:19.200',-0.033,-0.062,-0.122,97.000
'0:19.210',-0.032,-0.059,-0.124,97.000
'0:19.220',-0.031,-0.056,-0.127,97.000
'0:19.230',-0.030,-0.053,-0.129,97.000
'0:19.240',-0.029,-0.050,-0.132,97.000
'0:19.250',-0.028,-0.047,-0.134,97.000
'0:19.260',-0.033,-0.050,-0.136,97.000
'0:19.270',-0.038,-0.053,-0.139,97.000
'0:19.280',-0.042,-0.056,-0.141,97.000
'0:19.290',-0.047,-0.059,-0.144,97.000
'0:19.300',-0.052,-0.062,-0.146,97.000
'0:19.310',-0.058,-0.064,-0.149,97.000
'0:19.320',-0.065,-0.066,-0.151,97.000
'0:19.330',-0.071,-0.067,-0.154,97.000
'0:19.340',-0.078,-0.069,-0.156,97.000
'0:19.350',-0.084,-0.071,-0.159,97.000
'0:19.360',-0.071,-0.062,-0.161,97.000
'0:19.370',-0.058,-0.053,-0.164,97.000
'0:19.380',-0.044,-0.044,-0.166,97.000
'0:19.390',-0.031,-0.034,-0.169,97.000
'0:19.400',-0.018,-0.025,-0.171,97.000
'0:19.410',-0.017,-0.023,-0.173,97.000
'0:19.420',-0.016,-0.021,-0.176,97.000
'0:19.430',-0.015,-0.019,-0.178,97.000
'0:19.440',-0.014,-0.017,-0.181,97.000
'0:19.450',-0.013,-0.015,-0.184,97.000
'0:19.460',-0.015,-0.016,-0.186,97.000
'0:19.470',-0.018,-0.017,-0.189,97.000
'0:19.480',-0.021,-0.017,-0.191,97.000
'0:19.490',-0.024,-0.018,-0.194,97.000
'0:19.500',-0.026,-0.019,-0.196,97.000
'0:19.510',-0.029,-0.019,-0.199,97.000
'0:19.520',-0.031,-0.020,-0.201,97.000
'0:19.530',-0.033,-0.021,-0.203,97.000
'0:19.540',-0.035,-0.021,-0.206,97.000
'0:19.550',-0.037,-0.022,-0.208,97.000
'0:19.560',-0.044,-0.025,-0.210,97.000
'0:19.570',-0.051,-0.028,-0.213,97.000
'0:19.580',-0.058,-0.031,-0.215,97.000
'0:19.590',-0.065,-0.034,-0.217,97.000
'0:19.600',-0.072,-0.037,-0.220,97.000
'0:19.610',-0.063,-0.031,-0.222,97.000
'0:19.620',-0.055,-0.025,-0.225,97.000
'0:19.630',-0.046,-0.020,-0.227,97.000
'0:19.640',-0.038,-0.014,-0.229,97.000
'0:19.650',-0.029,-0.009,-0.232,97.000
'0:19.660',-0.031,-0.009,-0.234,97.000
'0:19.670',-0.033,-0.009,-0.236,97.000
'0:19.680',-0.036,-0.009,-0.238,97.000
'0:19.690',-0.038,-0.010,-0.240,97.000
'0:19.700',-0.040,-0.010,-0.242,97.000
'0:19.710',-0.047,-0.012,-0.245,97.000
'0:19.720',-0.053,-0.015,-0.247,97.000
'0:19.730',-0.060,-0.017,-0.249,97.000
'0:19.740',-0.067,-0.019,-0.251,97.000
'0:19.750',-0.074,-0.022,-0.253,97.000
'0:19.760',-0.064,-0.015,-0.255,97.000
'0:19.770',-0.055,-0.009,-0.257,97.000
'0:19.780',-0.046,-0.003,-0.259,97.000
'0:19.790',-0.036,0.003,-0.261,97.000
'0:19.800',-0.027,0.009,-0.263,97.000
'0:19.810',-0.029,0.010,-0.265,97.000
'0:19.820',-0.032,0.011,-0.266,97.000
'0:19.830',-0.034,0.013,-0.268,97.000
'0:19.840',-0.037,0.014,-0.270,97.000
'0:19.850',-0.039,0.015,-0.272,97.000
'0:19.860',-0.044,0.015,-0.273,97.000
'0:19.870',-0.049,0.014,-0.275,97.000
'0:19.880',-0.053,0.014,-0.277,97.000
'0:19.890',-0.058,0.014,-0.279,97.000
'0:19.900',-0.063,0.014,-0.281,97.000
'0:19.910',-0.062,0.016,-0.283,97.000
'0:19.920',-0.061,0.018,-0.285,97.000
'0:19.930',-0.060,0.020,-0.287,97.000
'0:19.940',-0.059,0.022,-0.288,97.000
'0:19.950',-0.058,0.024,-0.290,97.000
'0:19.960',-0.054,0.025,-0.292,97.000
'0:19.970',-0.050,0.026,-0.293,97.000
'0:19.980',-0.046,0.028,-0.295,97.000
'0:19.990',-0.042,0.029,-0.297,97.000
'0:20.000',-0.039,0.030,-0.298,97.000
'0:20.010',-0.031,0.033,-0.300,97.000
'0:20.020',-0.023,0.036,-0.301,97.000
'0:20.030',-0.015,0.039,-0.303,97.000
'0:20.040',-0.007,0.042,-0.304,97.000
'0:20.050',0.001,0.045,-0.306,97.000
'0:20.060',-0.001,0.044,-0.307,97.000
'0:20.070',-0.004,0.044,-0.308,97.000
'0:20.080',-0.006,0.043,-0.309,97.000
'0:20.090',-0.009,0.042,-0.310,97.000
'0:20.100',-0.011,0.041,-0.311,97.000
'0:20.110',-0.012,0.040,-0.312,97.000
'0:20.120',-0.013,0.038,-0.313,97.000
'0:20.130',-0.014,0.037,-0.314,97.000
'0:20.140',-0.015,0.035,-0.315,97.000
'0:20.150',-0.016,0.034,-0.316,97.000
'0:20.160',-0.010,0.037,-0.316,97.000
'0:20.170',-0.003,0.040,-0.317,97.000
'0:20.180',0.003,0.043,-0.318,97.000
'0:20.190',0.009,0.045,-0.318,97.000
'0:20.200',0.016,0.048,-0.319,97.000
'0:20.210',0.014,0.047,-0.319,97.000
'0:20.220',0.012,0.046,-0.319,97.000
'0:20.230',0.010,0.046,-0.319,97.000
'0:20.240',0.009,0.045,-0.319,97.000
'0:20.250',0.007,0.044,-0.319,97.000
'0:20.260',0.006,0.043,-0.319,97.000
'0:20.270',0.005,0.043,-0.319,97.000
'0:20.280',0.004,0.042,-0.318,97.000
'0:20.290',0.003,0.041,-0.318,97.000
'0:20.300',0.002,0.041,-0.317,97.000
'0:20.310',0.003,0.040,-0.316,97.000
'0:20.320',0.003,0.039,-0.315,97.000
'0:20.330',0.004,0.038,-0.314,97.000
'0:20.340',0.004,0.037,-0.312,97.000
'0:20.350',0.004,0.037,-0.311,97.000
'0:20.360',-0.000,0.033,-0.309,97.000
'0:20.370',-0.004,0.030,-0.306,97.000
'0:20.380',-0.009,0.026,-0.304,97.000
'0:20.390',-0.013,0.023,-0.301,97.000
'0:20.400',-0.018,0.020,-0.299,97.000
'0:20.410',-0.012,0.022,-0.296,97.000
'0:20.420',-0.007,0.025,-0.293,97.000
'0:20.430',-0.002,0.027,-0.290,97.000
'0:20.440',0.003,0.029,-0.286,97.000
'0:20.450',0.008,0.032,-0.283,97.000
'0:20.460',0.002,0.027,-0.280,97.000
'0:20.470',-0.004,0.022,-0.277,97.000
'0:20.480',-0.011,0.017,-0.273,97.000
'0:20.490',-0.017,0.012,-0.270,97.000
'0:20.500',-0.024,0.007,-0.267,97.000
'0:20.510',-0.031,0.002,-0.263,97.000
'0:20.520',-0.038,-0.003,-0.260,97.000
'0:20.530',-0.046,-0.008,-0.256,97.000
'0:20.540',-0.053,-0.013,-0.253,97.000
'0:20.550',-0.060,-0.018,-0.249,97.000
'0:20.560',-0.054,-0.015,-0.246,97.000
'0:20.570',-0.047,-0.011,-0.242,97.000
'0:20.580',-0.040,-0.008,-0.239,97.000
'0:20.590',-0.034,-0.004,-0.235,97.000
'0:20.600',-0.027,-0.001,-0.232,97.000
'0:20.610',-0.031,-0.003,-0.229,97.000
'0:20.620',-0.034,-0.005,-0.225,97.000
'0:20.630',-0.038,-0.008,-0.222,97.000
'0:20.640',-0.041,-0.010,-0.218,97.000
'0:20.650',-0.045,-0.013,-0.215,97.000
'0:20.660',-0.049,-0.015,-0.212,97.000
'0:20.670',-0.053,-0.018,-0.208,97.000
'0:20.680',-0.057,-0.021,-0.205,97.000
'0:20.690',-0.062,-0.023,-0.202,97.000
'0:20.700',-0.066,-0.026,-0.198,97.000
'0:20.710',-0.071,-0.028,-0.195,97.000
'0:20.720',-0.076,-0.031,-0.191,97.000
'0:20.730',-0.081,-0.033,-0.188,97.000
'0:20.740',-0.087,-0.036,-0.185,97.000
'0:20.750',-0.092,-0.039,-0.181,97.000
'0:20.760',-0.101,-0.041,-0.178,97.000
'0:20.770',-0.111,-0.044,-0.175,97.000
'0:20.780',-0.120,-0.047,-0.171,97.000
'0:20.790',-0.130,-0.050,-0.168,97.000
'0:20.800',-0.139,-0.053,-0.164,97.000
'0:20.810',-0.138,-0.053,-0.161,97.000
'0:20.820',-0.136,-0.053,-0.158,97.000
'0:20.830',-0.135,-0.053,-0.155,97.000
'0:20.840',-0.134,-0.053,-0.152,97.000
'0:20.850',-0.132,-0.053,-0.149,97.000
'0:20.860',-0.133,-0.053,-0.146,97.000
'0:20.870',-0.133,-0.052,-0.143,97.000
'0:20.880',-0.134,-0.052,-0.140,97.000
'0:20.890',-0.134,-0.052,-0.137,97.000
'0:20.900',-0.135,-0.052,-0.134,97.000
'0:20.910',-0.146,-0.050,-0.131,97.000
'0:20.920',-0.158,-0.048,-0.129,97.000
'0:20.930',-0.170,-0.046,-0.126,97.000
'0:20.940',-0.182,-0.044,-0.123,97.000
'0:20.950',-0.193,-0.043,-0.120,97.000
'0:20.960',-0.196,-0.042,-0.118,97.000
'0:20.970',-0.198,-0.042,-0.115,97.000
'0:20.980',-0.201,-0.041,-0.113,97.000
'0:20.990',-0.203,-0.041,-0.110,97.000
'0:21.000',-0.206,-0.041,-0.107,97.000
'0:21.010',-0.204,-0.042,-0.105,97.000
'0:21.020',-0.202,-0.044,-0.103,97.000
'0:21.030',-0.200,-0.046,-0.100,97.000
'0:21.040',-0.198,-0.048,-0.098,97.000
'0:21.050',-0.196,-0.050,-0.095,97.000
'0:21.060',-0.197,-0.051,-0.093,97.000
'0:21.070',-0.198,-0.053,-0.090,97.000
'0:21.080',-0.199,-0.055,-0.088,97.000
'0:21.090',-0.200,-0.057,-0.085,97.000
'0:21.100',-0.200,-0.059,-0.083,97.000
'0:21.110',-0.201,-0.060,-0.081,97.000
'0:21.120',-0.202,-0.060,-0.078,97.000
'0:21.130',-0.202,-0.061,-0.076,97.000
'0:21.140',-0.203,-0.061,-0.073,97.000
'0:21.150',-0.203,-0.062,-0.071,97.000
'0:21.160',-0.206,-0.061,-0.068,97.000
'0:21.170',-0.209,-0.060,-0.066,97.000
'0:21.180',-0.212,-0.060,-0.064,97.000
'0:21.190',-0.215,-0.059,-0.061,97.000
'0:21.200',-0.218,-0.058,-0.059,97.000
'0:21.210',-0.221,-0.058,-0.057,97.000
'0:21.220',-0.223,-0.057,-0.054,97.000
'0:21.230',-0.225,-0.057,-0.052,97.000
'0:21.240',-0.227,-0.056,-0.050,97.000
'0:21.250',-0.230,-0.056,-0.048,97.000
'0:21.260',-0.231,-0.055,-0.046,97.000
'0:21.270',-0.232,-0.055,-0.043,97.000
'0:21.280',-0.234,-0.054,-0.041,97.000
'0:21.290',-0.235,-0.053,-0.039,97.000
'0:21.300',-0.236,-0.053,-0.037,97.000
'0:21.310',-0.233,-0.054,-0.035,97.000
'0:21.320',-0.230,-0.054,-0.033,97.000
'0:21.330',-0.226,-0.055,-0.031,97.000
'0:21.340',-0.223,-0.056,-0.029,97.000
'0:21.350',-0.219,-0.056,-0.027,97.000
'0:21.360',-0.217,-0.057,-0.025,97.000
'0:21.370',-0.215,-0.059,-0.023,97.000
'0:21.380',-0.213,-0.060,-0.021,97.000
'0:21.390',-0.211,-0.061,-0.020,97.000
'0:21.400',-0.210,-0.062,-0.018,97.000
'0:21.410',-0.218,-0.062,-0.016,97.000
'0:21.420',-0.227,-0.061,-0.014,97.000
'0:21.430',-0.235,-0.061,-0.012,97.000
'0:21.440',-0.244,-0.061,-0.010,97.000
'0:21.450',-0.253,-0.061,-0.009,97.000
'0:21.460',-0.258,-0.060,-0.007,97.000
'0:21.470',-0.263,-0.060,-0.005,97.000
'0:21.480',-0.269,-0.059,-0.003,97.000
'0:21.490',-0.274,-0.059,-0.002,97.000
'0:21.500',-0.279,-0.059,-0.000,97.000
'0:21.510',-0.276,-0.059,0.002,97.000
'0:21.520',-0.273,-0.059,0.003,97.000
'0:21.530',-0.269,-0.059,0.005,97.000
'0:21.540',-0.266,-0.059,0.006,97.000
'0:21.550',-0.263,-0.059,0.008,97.000
'0:21.560',-0.265,-0.058,0.010,97.000
'0:21.570',-0.266,-0.058,0.012,97.000
'0:21.580',-0.268,-0.057,0.013,97.000
'0:21.590',-0.270,-0.057,0.015,97.000
'0:21.600',-0.272,-0.056,0.017,97.000
'0:21.610',-0.269,-0.055,0.018,97.000
'0:21.620',-0.266,-0.054,0.020,97.000
'0:21.630',-0.263,-0.053,0.022,97.000
'0:21.640',-0.260,-0.053,0.023,97.000
'0:21.650',-0.257,-0.052,0.025,97.000
'0:21.660',-0.253,-0.051,0.027,97.000
'0:21.670',-0.248,-0.050,0.028,97.000
'0:21.680',-0.244,-0.049,0.030,97.000
'0:21.690',-0.239,-0.048,0.032,97.000
'0:21.700',-0.235,-0.047,0.034,97.000
'0:21.710',-0.235,-0.049,0.035,97.000
'0:21.720',-0.235,-0.051,0.037,97.000
'0:21.730',-0.235,-0.052,0.039,97.000
'0:21.740',-0.235,-0.054,0.041,97.000
'0:21.750',-0.235,-0.056,0.042,97.000
'0:21.760',-0.228,-0.060,0.044,97.000
'0:21.770',-0.221,-0.065,0.045,97.000
'0:21.780',-0.214,-0.070,0.047,97.000
'0:21.790',-0.208,-0.075,0.049,97.000
'0:21.800',-0.201,-0.079,0.050,97.000
'0:21.810',-0.198,-0.085,0.052,97.000
'0:21.820',-0.195,-0.091,0.053,97.000
'0:21.830',-0.191,-0.098,0.055,97.000
'0:21.840',-0.188,-0.104,0.056,97.000
'0:21.850',-0.185,-0.110,0.058,97.000
'0:21.860',-0.178,-0.109,0.059,97.000
'0:21.870',-0.171,-0.108,0.061,97.000
'0:21.880',-0.164,-0.107,0.063,97.000
'0:21.890',-0.157,-0.107,0.064,97.000
'0:21.900',-0.149,-0.106,0.066,97.000
'0:21.910',-0.143,-0.104,0.067,97.000
'0:21.920',-0.136,-0.102,0.069,97.000
'0:21.930',-0.130,-0.101,0.070,97.000
'0:21.940',-0.123,-0.099,0.072,97.000
'0:21.950',-0.117,-0.097,0.073,97.000
'0:21.960',-0.119,-0.101,0.075,96.000
'0:21.970',-0.121,-0.104,0.076,96.000
'0:21.980',-0.123,-0.107,0.078,96.000
'0:21.990',-0.125,-0.110,0.079,96.000
'0:22.000',-0.127,-0.114,0.081,96.000
'0:22.010',-0.127,-0.115,0.082,96.000
'0:22.020',-0.126,-0.116,0.083,96.000
'0:22.030',-0.126,-0.117,0.084,96.000
'0:22.040',-0.125,-0.118,0.085,96.000
'0:22.050',-0.124,-0.119,0.086,96.000
'0:22.060',-0.125,-0.119,0.086,96.000
'0:22.070',-0.125,-0.119,0.086,96.000
'0:22.080',-0.126,-0.119,0.086,96.000
'0:22.090',-0.127,-0.119,0.086,96.000
'0:22.100',-0.127,-0.119,0.086,96.000
'0:22.110',-0.125,-0.118,0.085,96.000
'0:22.120',-0.123,-0.117,0.084,96.000
'0:22.130',-0.121,-0.117,0.083,96.000
'0:22.140',-0.119,-0.116,0.082,96.000
'0:22.150',-0.117,-0.115,0.081,96.000
'0:22.160',-0.118,-0.115,0.080,96.000
'0:22.170',-0.118,-0.115,0.078,96.000
'0:22.180',-0.119,-0.115,0.077,96.000
'0:22.190',-0.120,-0.115,0.076,96.000
'0:22.200',-0.121,-0.114,0.074,96.000
'0:22.210',-0.114,-0.111,0.073,96.000
'0:22.220',-0.107,-0.107,0.071,96.000
'0:22.230',-0.100,-0.103,0.069,96.000
'0:22.240',-0.093,-0.100,0.068,96.000
'0:22.250',-0.086,-0.096,0.066,96.000
'0:22.260',-0.078,-0.095,0.064,96.000
'0:22.270',-0.071,-0.094,0.063,96.000
'0:22.280',-0.063,-0.094,0.061,96.000
'0:22.290',-0.056,-0.093,0.059,96.000
'0:22.300',-0.048,-0.092,0.058,96.000
'0:22.310',-0.058,-0.095,0.056,96.000
'0:22.320',-0.067,-0.098,0.054,96.000
'0:22.330',-0.076,-0.102,0.052,96.000
'0:22.340',-0.085,-0.105,0.050,96.000
'0:22.350',-0.094,-0.108,0.049,96.000
'0:22.360',-0.096,-0.106,0.047,96.000
'0:22.370',-0.097,-0.105,0.045,96.000
'0:22.380',-0.099,-0.104,0.043,96.000
'0:22.390',-0.101,-0.102,0.042,96.000
'0:22.400',-0.102,-0.101,0.040,96.000
'0:22.410',-0.097,-0.099,0.038,96.000
'0:22.420',-0.092,-0.098,0.037,96.000
'0:22.430',-0.087,-0.096,0.036,96.000
'0:22.440',-0.082,-0.095,0.034,96.000
'0:22.450',-0.077,-0.093,0.033,96.000
'0:22.460',-0.071,-0.091,0.032,96.000
'0:22.470',-0.065,-0.088,0.030,96.000
'0:22.480',-0.059,-0.086,0.029,96.000
'0:22.490',-0.054,-0.083,0.028,96.000
'0:22.500',-0.048,-0.080,0.026,96.000
'0:22.510',-0.046,-0.078,0.025,96.000
'0:22.520',-0.045,-0.076,0.024,96.000
'0:22.530',-0.044,-0.073,0.022,96.000
'0:22.540',-0.042,-0.071,0.021,96.000
'0:22.550',-0.041,-0.068,0.020,96.000
'0:22.560',-0.040,-0.067,0.019,96.000
'0:22.570',-0.039,-0.065,0.018,96.000
'0:22.580',-0.038,-0.064,0.017,96.000
'0:22.590',-0.037,-0.063,0.016,96.000
'0:22.600',-0.036,-0.061,0.015,96.000
'0:22.610',-0.035,-0.061,0.015,96.000
'0:22.620',-0.034,-0.060,0.014,96.000
'0:22.630',-0.033,-0.060,0.013,96.000
'0:22.640',-0.031,-0.060,0.012,96.000
'0:22.650',-0.030,-0.059,0.011,96.000
'0:22.660',-0.033,-0.059,0.010,96.000
'0:22.670',-0.036,-0.058,0.010,96.000
'0:22.680',-0.040,-0.058,0.009,96.000
'0:22.690',-0.043,-0.057,0.008,96.000
'0:22.700',-0.046,-0.057,0.007,96.000
'0:22.710',-0.049,-0.058,0.006,96.000
'0:22.720',-0.052,-0.060,0.006,96.000
'0:22.730',-0.054,-0.061,0.005,96.000
'0:22.740',-0.057,-0.062,0.004,96.000
'0:22.750',-0.060,-0.064,0.003,96.000
'0:22.760',-0.061,-0.064,0.002,96.000
'0:22.770',-0.063,-0.064,0.001,96.000
'0:22.780',-0.064,-0.064,0.000,96.000
'0:22.790',-0.065,-0.064,-0.001,96.000
'0:22.800',-0.066,-0.064,-0.002,96.000
'0:22.810',-0.061,-0.060,-0.003,96.000
'0:22.820',-0.057,-0.056,-0.005,96.000
'0:22.830',-0.053,-0.052,-0.006,96.000
'0:22.840',-0.048,-0.048,-0.007,96.000
'0:22.850',-0.044,-0.044,-0.009,96.000
'0:22.860',-0.045,-0.045,-0.011,96.000
'0:22.870',-0.047,-0.046,-0.013,96.000
'0:22.880',-0.048,-0.047,-0.015,96.000
'0:22.890',-0.049,-0.048,-0.017,96.000
'0:22.900',-0.051,-0.049,-0.018,96.000
'0:22.910',-0.046,-0.046,-0.021,96.000
'0:22.920',-0.042,-0.042,-0.023,96.000
'0:22.930',-0.037,-0.039,-0.025,96.000
'0:22.940',-0.033,-0.036,-0.027,96.000
'0:22.950',-0.028,-0.033,-0.029,96.000
'0:22.960',-0.027,-0.031,-0.032,95.000
'0:22.970',-0.026,-0.030,-0.034,95.000
'0:22.980',-0.024,-0.029,-0.037,95.000
'0:22.990',-0.023,-0.027,-0.039,95.000
'0:23.000',-0.022,-0.026,-0.041,95.000
'0:23.010',-0.028,-0.029,-0.044,95.000
'0:23.020',-0.034,-0.033,-0.046,95.000
'0:23.030',-0.040,-0.036,-0.048,95.000
'0:23.040',-0.046,-0.039,-0.051,95.000
'0:23.050',-0.052,-0.042,-0.053,95.000
'0:23.060',-0.047,-0.039,-0.055,95.000
'0:23.070',-0.043,-0.036,-0.057,95.000
'0:23.080',-0.039,-0.033,-0.059,95.000
'0:23.090',-0.035,-0.029,-0.061,95.000
'0:23.100',-0.030,-0.026,-0.063,95.000
'0:23.110',-0.031,-0.026,-0.065,95.000
'0:23.120',-0.032,-0.026,-0.066,95.000
'0:23.130',-0.032,-0.025,-0.068,95.000
'0:23.140',-0.033,-0.025,-0.070,95.000
'0:23.150',-0.034,-0.025,-0.072,95.000
'0:23.160',-0.031,-0.022,-0.074,95.000
'0:23.170',-0.029,-0.020,-0.076,95.000
'0:23.180',-0.026,-0.018,-0.078,95.000
'0:23.190',-0.024,-0.015,-0.080,95.000
'0:23.200',-0.022,-0.013,-0.082,95.000
'0:23.210',-0.015,-0.009,-0.084,95.000
'0:23.220',-0.009,-0.004,-0.086,95.000
'0:23.230',-0.002,0.001,-0.088,95.000
'0:23.240',0.004,0.005,-0.090,95.000
'0:23.250',0.010,0.010,-0.092,95.000
'0:23.260',0.008,0.009,-0.093,95.000
'0:23.270',0.005,0.008,-0.095,95.000
'0:23.280',0.003,0.007,-0.097,95.000
'0:23.290',0.001,0.006,-0.098,95.000
'0:23.300',-0.002,0.005,-0.100,95.000
'0:23.310',0.002,0.009,-0.102,95.000
'0:23.320',0.006,0.013,-0.104,95.000
'0:23.330',0.010,0.017,-0.105,95.000
'0:23.340',0.014,0.021,-0.107,95.000
'0:23.350',0.018,0.025,-0.109,95.000
'0:23.360',0.022,0.029,-0.111,95.000
'0:23.370',0.027,0.033,-0.113,95.000
'0:23.380',0.031,0.037,-0.115,95.000
'0:23.390',0.036,0.042,-0.117,95.000
'0:23.400',0.040,0.046,-0.119,95.000
'0:23.410',0.037,0.045,-0.121,95.000
'0:23.420',0.034,0.044,-0.123,95.000
'0:23.430',0.031,0.044,-0.125,95.000
'0:23.440',0.028,0.043,-0.127,95.000
'0:23.450',0.025,0.043,-0.130,95.000
'0:23.460',0.027,0.045,-0.132,95.000
'0:23.470',0.029,0.048,-0.135,95.000
'0:23.480',0.030,0.050,-0.137,95.000
'0:23.490',0.032,0.052,-0.140,95.000
'0:23.500',0.034,0.055,-0.142,95.000
'0:23.510',0.028,0.053,-0.145,95.000
'0:23.520',0.023,0.052,-0.147,95.000
'0:23.530',0.017,0.050,-0.150,95.000
'0:23.540',0.012,0.049,-0.153,95.000
'0:23.550',0.006,0.047,-0.155,95.000
'0:23.560',0.004,0.048,-0.158,95.000
'0:23.570',0.001,0.049,-0.161,95.000
'0:23.580',-0.002,0.051,-0.164,95.000
'0:23.590',-0.005,0.052,-0.167,95.000
'0:23.600',-0.007,0.053,-0.170,95.000
'0:23.610',-0.001,0.059,-0.173,95.000
'0:23.620',0.006,0.064,-0.176,95.000
'0:23.630',0.012,0.070,-0.179,95.000
'0:23.640',0.019,0.076,-0.183,95.000
'0:23.650',0.026,0.081,-0.186,95.000
'0:23.660',0.021,0.084,-0.189,95.000
'0:23.670',0.016,0.087,-0.193,95.000
'0:23.680',0.012,0.090,-0.196,95.000
'0:23.690',0.007,0.093,-0.200,95.000
'0:23.700',0.002,0.096,-0.203,95.000
'0:23.710',0.005,0.101,-0.207,95.000
'0:23.720',0.008,0.105,-0.210,95.000
'0:23.730',0.010,0.109,-0.214,95.000
'0:23.740',0.013,0.114,-0.217,95.000
'0:23.750',0.015,0.118,-0.221,95.000
'0:23.760',0.019,0.123,-0.224,95.000
'0:23.770',0.023,0.129,-0.228,95.000
'0:23.780',0.027,0.134,-0.232,95.000
'0:23.790',0.031,0.139,-0.235,95.000
'0:23.800',0.035,0.144,-0.239,95.000
'0:23.810',0.023,0.149,-0.242,95.000
'0:23.820',0.011,0.153,-0.245,95.000
'0:23.830',-0.002,0.158,-0.249,95.000
'0:23.840',-0.014,0.163,-0.252,95.000
'0:23.850',-0.027,0.167,-0.256,95.000
'0:23.860',-0.022,0.171,-0.259,95.000
'0:23.870',-0.017,0.175,-0.262,95.000
'0:23.880',-0.012,0.178,-0.265,95.000
'0:23.890',-0.007,0.182,-0.269,95.000
'0:23.900',-0.002,0.186,-0.272,95.000
'0:23.910',0.006,0.191,-0.275,95.000
'0:23.920',0.013,0.197,-0.279,95.000
'0:23.930',0.021,0.202,-0.282,95.000
'0:23.940',0.029,0.207,-0.285,95.000
'0:23.950',0.037,0.213,-0.289,95.000
'0:23.960',0.031,0.219,-0.292,95.000
'0:23.970',0.025,0.224,-0.295,95.000
'0:23.980',0.019,0.230,-0.298,95.000
'0:23.990',0.013,0.236,-0.301,95.000
'0:24.000',0.006,0.242,-0.304,95.000
'0:24.010',0.010,0.246,-0.307,95.000
'0:24.020',0.014,0.251,-0.310,95.000
'0:24.030',0.018,0.255,-0.313,95.000
'0:24.040',0.022,0.260,-0.316,95.000
'0:24.050',0.026,0.264,-0.319,95.000
'0:24.060',0.028,0.270,-0.322,95.000
'0:24.070',0.029,0.276,-0.325,95.000
'0:24.080',0.031,0.281,-0.328,95.000
'0:24.090',0.032,0.287,-0.331,95.000
'0:24.100',0.034,0.293,-0.334,95.000
'0:24.110',0.037,0.299,-0.336,95.000
'0:24.120',0.040,0.305,-0.339,95.000
'0:24.130',0.043,0.310,-0.342,95.000
'0:24.140',0.047,0.316,-0.345,95.000
'0:24.150',0.050,0.322,-0.348,95.000
'0:24.160',0.058,0.326,-0.351,95.000
'0:24.170',0.065,0.331,-0.354,95.000
'0:24.180',0.073,0.335,-0.357,95.000
'0:24.190',0.081,0.339,-0.360,95.000
'0:24.200',0.088,0.344,-0.363,95.000
'0:24.210',0.091,0.349,-0.365,95.000
'0:24.220',0.094,0.353,-0.368,95.000
'0:24.230',0.096,0.358,-0.371,95.000
'0:24.240',0.099,0.363,-0.373,95.000
'0:24.250',0.102,0.367,-0.376,95.000
'0:24.260',0.106,0.373,-0.378,95.000
'0:24.270',0.110,0.378,-0.381,95.000
'0:24.280',0.114,0.383,-0.383,95.000
'0:24.290',0.119,0.388,-0.386,95.000
'0:24.300',0.123,0.393,-0.388,95.000
'0:24.310',0.127,0.399,-0.391,95.000
'0:24.320',0.132,0.404,-0.393,95.000
'0:24.330',0.136,0.410,-0.396,95.000
'0:24.340',0.140,0.415,-0.399,95.000
'0:24.350',0.145,0.420,-0.401,95.000
'0:24.360',0.149,0.425,-0.403,95.000
'0:24.370',0.154,0.430,-0.405,95.000
'0:24.380',0.159,0.435,-0.408,95.000
'0:24.390',0.163,0.440,-0.410,95.000
'0:24.400',0.168,0.445,-0.412,95.000
'0:24.410',0.167,0.450,-0.414,95.000
'0:24.420',0.167,0.455,-0.416,95.000
'0:24.430',0.166,0.461,-0.419,95.000
'0:24.440',0.165,0.466,-0.421,95.000
'0:24.450',0.165,0.471,-0.423,95.000
'0:24.460',0.161,0.476,-0.425,95.000
'0:24.470',0.157,0.481,-0.427,95.000
'0:24.480',0.153,0.486,-0.430,95.000
'0:24.490',0.150,0.491,-0.432,95.000
'0:24.500',0.146,0.496,-0.434,95.000
'0:24.510',0.143,0.501,-0.436,95.000
'0:24.520',0.141,0.507,-0.439,95.000
'0:24.530',0.139,0.512,-0.441,95.000
'0:24.540',0.136,0.518,-0.444,95.000
'0:24.550',0.134,0.523,-0.446,95.000
'0:24.560',0.139,0.528,-0.449,95.000
'0:24.570',0.143,0.533,-0.452,95.000
'0:24.580',0.148,0.538,-0.454,95.000
'0:24.590',0.153,0.543,-0.457,95.000
'0:24.600',0.158,0.548,-0.460,95.000
'0:24.610',0.155,0.553,-0.462,95.000
'0:24.620',0.152,0.557,-0.464,95.000
'0:24.630',0.149,0.561,-0.466,95.000
'0:24.640',0.147,0.565,-0.469,95.000
'0:24.650',0.144,0.570,-0.471,95.000
'0:24.660',0.138,0.574,-0.473,95.000
'0:24.670',0.133,0.578,-0.475,95.000
'0:24.680',0.127,0.583,-0.477,95.000
'0:24.690',0.121,0.587,-0.478,95.000
'0:24.700',0.115,0.591,-0.480,95.000
'0:24.710',0.125,0.596,-0.482,95.000
'0:24.720',0.136,0.602,-0.484,95.000
'0:24.730',0.146,0.607,-0.486,95.000
'0:24.740',0.156,0.612,-0.488,95.000
'0:24.750',0.166,0.617,-0.490,95.000
'0:24.760',0.162,0.623,-0.492,95.000
'0:24.770',0.157,0.629,-0.494,95.000
'0:24.780',0.152,0.635,-0.495,95.000
'0:24.790',0.148,0.642,-0.497,95.000
'0:24.800',0.143,0.648,-0.499,95.000
'0:24.810',0.139,0.653,-0.501,95.000
'0:24.820',0.135,0.657,-0.503,95.000
'0:24.830',0.131,0.662,-0.504,95.000
'0:24.840',0.127,0.667,-0.506,95.000
'0:24.850',0.122,0.672,-0.508,95.000
'0:24.860',0.127,0.677,-0.509,95.000
'0:24.870',0.132,0.682,-0.511,95.000
'0:24.880',0.137,0.686,-0.513,95.000
'0:24.890',0.141,0.691,-0.514,95.000
'0:24.900',0.146,0.696,-0.516,95.000
'0:24.910',0.144,0.702,-0.518,95.000
'0:24.920',0.142,0.708,-0.519,95.000
'0:24.930',0.140,0.714,-0.521,95.000
'0:24.940',0.139,0.720,-0.522,95.000
'0:24.950',0.137,0.726,-0.524,95.000
'0:24.960',0.143,0.729,-0.525,94.000
'0:24.970',0.150,0.733,-0.527,94.000
'0:24.980',0.156,0.736,-0.528,94.000
'0:24.990',0.163,0.740,-0.529,94.000
'0:25.000',0.169,0.743,-0.531,94.000
'0:25.010',0.169,0.746,-0.532,94.000
'0:25.020',0.169,0.749,-0.533,94.000
'0:25.030',0.168,0.752,-0.534,94.000
'0:25.040',0.168,0.755,-0.536,94.000
'0:25.050',0.167,0.758,-0.537,94.000
'0:25.060',0.163,0.760,-0.538,94.000
'0:25.070',0.159,0.762,-0.539,94.000
'0:25.080',0.155,0.764,-0.540,94.000
'0:25.090',0.151,0.766,-0.540,94.000
'0:25.100',0.148,0.768,-0.541,94.000
'0:25.110',0.150,0.765,-0.542,94.000
'0:25.120',0.153,0.763,-0.542,94.000
'0:25.130',0.156,0.761,-0.543,94.000
'0:25.140',0.159,0.759,-0.543,94.000
'0:25.150',0.162,0.756,-0.544,94.000
'0:25.160',0.161,0.753,-0.543,94.000
'0:25.170',0.160,0.750,-0.543,94.000
'0:25.180',0.160,0.746,-0.543,94.000
'0:25.190',0.159,0.743,-0.542,94.000
'0:25.200',0.158,0.739,-0.542,94.000
'0:25.210',0.161,0.733,-0.540,94.000
'0:25.220',0.165,0.727,-0.538,94.000
'0:25.230',0.168,0.720,-0.536,94.000
'0:25.240',0.171,0.714,-0.534,94.000
'0:25.250',0.175,0.707,-0.532,94.000
'0:25.260',0.173,0.700,-0.529,94.000
'0:25.270',0.171,0.693,-0.526,94.000
'0:25.280',0.169,0.686,-0.522,94.000
'0:25.290',0.167,0.679,-0.519,94.000
'0:25.300',0.165,0.672,-0.516,94.000
'0:25.310',0.159,0.667,-0.512,94.000
'0:25.320',0.152,0.662,-0.507,94.000
'0:25.330',0.145,0.657,-0.503,94.000
'0:25.340',0.138,0.652,-0.499,94.000
'0:25.350',0.132,0.647,-0.495,94.000
'0:25.360',0.131,0.640,-0.490,94.000
'0:25.370',0.130,0.633,-0.485,94.000
'0:25.380',0.129,0.627,-0.481,94.000
'0:25.390',0.128,0.620,-0.476,94.000
'0:25.400',0.128,0.614,-0.471,94.000
'0:25.410',0.127,0.605,-0.466,94.000
'0:25.420',0.127,0.596,-0.461,94.000
'0:25.430',0.126,0.587,-0.456,94.000
'0:25.440',0.126,0.578,-0.451,94.000
'0:25.450',0.125,0.570,-0.447,94.000
'0:25.460',0.132,0.561,-0.441,94.000
'0:25.470',0.138,0.553,-0.436,94.000
'0:25.480',0.144,0.544,-0.431,94.000
'0:25.490',0.151,0.536,-0.426,94.000
'0:25.500',0.157,0.528,-0.421,94.000
'0:25.510',0.160,0.523,-0.416,94.000
'0:25.520',0.163,0.518,-0.411,94.000
'0:25.530',0.165,0.514,-0.406,94.000
'0:25.540',0.168,0.509,-0.401,94.000
'0:25.550',0.171,0.505,-0.396,94.000
'0:25.560',0.174,0.499,-0.391,94.000
'0:25.570',0.176,0.494,-0.386,94.000
'0:25.580',0.179,0.488,-0.381,94.000
'0:25.590',0.182,0.483,-0.377,94.000
'0:25.600',0.184,0.478,-0.372,94.000
'0:25.610',0.190,0.471,-0.367,94.000
'0:25.620',0.195,0.464,-0.362,94.000
'0:25.630',0.200,0.458,-0.357,94.000
'0:25.640',0.205,0.451,-0.352,94.000
'0:25.650',0.210,0.445,-0.348,94.000
'0:25.660',0.206,0.440,-0.343,94.000
'0:25.670',0.202,0.436,-0.338,94.000
'0:25.680',0.197,0.432,-0.333,94.000
'0:25.690',0.193,0.427,-0.328,94.000
'0:25.700',0.188,0.423,-0.323,94.000
'0:25.710',0.185,0.418,-0.319,94.000
'0:25.720',0.182,0.414,-0.314,94.000
'0:25.730',0.179,0.410,-0.309,94.000
'0:25.740',0.176,0.405,-0.305,94.000
'0:25.750',0.173,0.401,-0.300,94.000
'0:25.760',0.169,0.395,-0.295,94.000
'0:25.770',0.165,0.389,-0.291,94.000
'0:25.780',0.161,0.384,-0.286,94.000
'0:25.790',0.156,0.378,-0.282,94.000
'0:25.800',0.152,0.372,-0.277,94.000
'0:25.810',0.146,0.366,-0.273,94.000
'0:25.820',0.139,0.360,-0.268,94.000
'0:25.830',0.133,0.355,-0.264,94.000
'0:25.840',0.126,0.349,-0.259,94.000
'0:25.850',0.120,0.343,-0.255,94.000
'0:25.860',0.115,0.337,-0.250,94.000
'0:25.870',0.111,0.330,-0.246,94.000
'0:25.880',0.107,0.324,-0.241,94.000
'0:25.890',0.103,0.318,-0.237,94.000
'0:25.900',0.098,0.312,-0.232,94.000
'0:25.910',0.094,0.306,-0.228,94.000
'0:25.920',0.089,0.300,-0.224,94.000
'0:25.930',0.085,0.295,-0.219,94.000
'0:25.940',0.080,0.289,-0.215,94.000
'0:25.950',0.075,0.284,-0.211,94.000
'0:25.960',0.083,0.278,-0.206,94.000
'0:25.970',0.090,0.272,-0.202,94.000
'0:25.980',0.097,0.266,-0.197,94.000
'0:25.990',0.105,0.261,-0.193,94.000
'0:26.000',0.112,0.255,-0.189,94.000
'0:26.010',0.108,0.248,-0.184,94.000
'0:26.020',0.104,0.242,-0.180,94.000
'0:26.030',0.100,0.235,-0.176,94.000
'0:26.040',0.096,0.229,-0.172,94.000
'0:26.050',0.092,0.223,-0.167,94.000
'0:26.060',0.079,0.219,-0.163,94.000
'0:26.070',0.065,0.215,-0.159,94.000
'0:26.080',0.052,0.211,-0.155,94.000
'0:26.090',0.039,0.207,-0.151,94.000
'0:26.100',0.026,0.203,-0.147,94.000
'0:26.110',0.037,0.197,-0.142,94.000
'0:26.120',0.047,0.192,-0.138,94.000
'0:26.130',0.058,0.187,-0.134,94.000
'0:26.140',0.068,0.181,-0.130,94.000
'0:26.150',0.079,0.176,-0.125,94.000
'0:26.160',0.086,0.172,-0.121,94.000
'0:26.170',0.094,0.168,-0.117,94.000
'0:26.180',0.102,0.164,-0.113,94.000
'0:26.190',0.109,0.160,-0.109,94.000
'0:26.200',0.117,0.156,-0.105,94.000
'0:26.210',0.114,0.152,-0.101,94.000
'0:26.220',0.111,0.148,-0.097,94.000
'0:26.230',0.107,0.144,-0.092,94.000
'0:26.240',0.104,0.140,-0.088,94.000
'0:26.250',0.101,0.136,-0.084,94.000
'0:26.260',0.097,0.131,-0.080,94.000
'0:26.270',0.094,0.126,-0.076,94.000
'0:26.280',0.091,0.121,-0.072,94.000
'0:26.290',0.088,0.116,-0.068,94.000
'0:26.300',0.085,0.111,-0.064,94.000
'0:26.310',0.079,0.106,-0.061,94.000
'0:26.320',0.072,0.102,-0.057,94.000
'0:26.330',0.066,0.097,-0.053,94.000
'0:26.340',0.060,0.093,-0.050,94.000
'0:26.350',0.054,0.088,-0.046,94.000
'0:26.360',0.057,0.088,-0.042,94.000
'0:26.370',0.060,0.088,-0.039,94.000
'0:26.380',0.063,0.089,-0.035,94.000
'0:26.390',0.066,0.089,-0.031,94.000
'0:26.400',0.069,0.089,-0.028,94.000
'0:26.410',0.071,0.089,-0.024,94.000
'0:26.420',0.073,0.089,-0.021,94.000
'0:26.430',0.076,0.089,-0.018,94.000
'0:26.440',0.078,0.089,-0.014,94.000
'0:26.450',0.080,0.089,-0.011,94.000
'0:26.460',0.072,0.083,-0.007,94.000
'0:26.470',0.065,0.077,-0.004,94.000
'0:26.480',0.057,0.071,-0.001,94.000
'0:26.490',0.050,0.065,0.002,94.000
'0:26.500',0.043,0.059,0.006,94.000
'0:26.510',0.043,0.058,0.009,94.000
'0:26.520',0.044,0.057,0.012,94.000
'0:26.530',0.045,0.056,0.015,94.000
'0:26.540',0.045,0.056,0.018,94.000
'0:26.550',0.046,0.055,0.021,94.000
'0:26.560',0.041,0.050,0.024,94.000
'0:26.570',0.035,0.044,0.027,94.000
'0:26.580',0.030,0.039,0.030,94.000
'0:26.590',0.024,0.034,0.033,94.000
'0:26.600',0.019,0.029,0.036,94.000
'0:26.610',0.023,0.030,0.039,94.000
'0:26.620',0.028,0.031,0.042,94.000
'0:26.630',0.032,0.033,0.044,94.000
'0:26.640',0.036,0.034,0.047,94.000
'0:26.650',0.041,0.036,0.050,94.000
'0:26.660',0.048,0.038,0.053,94.000
'0:26.670',0.056,0.041,0.056,94.000
'0:26.680',0.064,0.043,0.058,94.000
'0:26.690',0.072,0.046,0.061,94.000
'0:26.700',0.079,0.049,0.064,94.000
'0:26.710',0.070,0.042,0.066,94.000
'0:26.720',0.060,0.035,0.069,94.000
'0:26.730',0.051,0.028,0.071,94.000
'0:26.740',0.041,0.021,0.073,94.000
'0:26.750',0.032,0.014,0.076,94.000
'0:26.760',0.033,0.011,0.079,94.000
'0:26.770',0.034,0.008,0.081,94.000
'0:26.780',0.036,0.005,0.084,94.000
'0:26.790',0.037,0.003,0.086,94.000
'0:26.800',0.038,0.000,0.089,94.000
'0:26.810',0.039,-0.008,0.091,94.000
'0:26.820',0.039,-0.016,0.094,94.000
'0:26.830',0.040,-0.023,0.096,94.000
'0:26.840',0.040,-0.031,0.099,94.000
'0:26.850',0.040,-0.039,0.101,94.000
'0:26.860',0.031,-0.046,0.103,94.000
'0:26.870',0.021,-0.053,0.105,94.000
'0:26.880',0.012,-0.060,0.108,94.000
'0:26.890',0.003,-0.068,0.110,94.000
'0:26.900',-0.007,-0.075,0.112,94.000
'0:26.910',-0.006,-0.077,0.114,94.000
'0:26.920',-0.006,-0.080,0.116,94.000
'0:26.930',-0.006,-0.083,0.118,94.000
'0:26.940',-0.005,-0.086,0.120,94.000
'0:26.950',-0.005,-0.089,0.122,94.000
'0:26.960',-0.001,-0.093,0.124,94.000
'0:26.970',0.002,-0.097,0.126,94.000
'0:26.980',0.005,-0.101,0.128,94.000
'0:26.990',0.008,-0.105,0.129,94.000
'0:27.000',0.012,-0.110,0.131,94.000
'0:27.010',0.011,-0.119,0.133,94.000
'0:27.020',0.010,-0.129,0.134,94.000
'0:27.030',0.010,-0.138,0.136,94.000
'0:27.040',0.009,-0.148,0.137,94.000
'0:27.050',0.008,-0.157,0.139,94.000
'0:27.060',0.013,-0.166,0.140,94.000
'0:27.070',0.018,-0.176,0.141,94.000
'0:27.080',0.022,-0.185,0.142,94.000
'0:27.090',0.027,-0.194,0.143,94.000
'0:27.100',0.031,-0.203,0.145,94.000
'0:27.110',0.028,-0.204,0.146,94.000
'0:27.120',0.025,-0.206,0.147,94.000
'0:27.130',0.021,-0.207,0.148,94.000
'0:27.140',0.018,-0.208,0.149,94.000
'0:27.150',0.015,-0.210,0.150,94.000
'0:27.160',0.009,-0.211,0.151,94.000
'0:27.170',0.003,-0.212,0.152,94.000
'0:27.180',-0.003,-0.213,0.152,94.000
'0:27.190',-0.008,-0.214,0.153,94.000
'0:27.200',-0.014,-0.215,0.154,94.000
'0:27.210',-0.009,-0.218,0.155,94.000
'0:27.220',-0.003,-0.221,0.156,94.000
'0:27.230',0.002,-0.224,0.157,94.000
'0:27.240',0.007,-0.228,0.158,94.000
'0:27.250',0.013,-0.231,0.159,94.000
'0:27.260',0.013,-0.233,0.160,94.000
'0:27.270',0.014,-0.235,0.160,94.000
'0:27.280',0.015,-0.236,0.161,94.000
'0:27.290',0.016,-0.238,0.162,94.000
'0:27.300',0.017,-0.240,0.163,94.000
'0:27.310',0.009,-0.240,0.164,94.000
'0:27.320',0.001,-0.239,0.164,94.000
'0:27.330',-0.008,-0.239,0.165,94.000
'0:27.340',-0.016,-0.238,0.165,94.000
'0:27.350',-0.024,-0.237,0.166,94.000
'0:27.360',-0.033,-0.237,0.167,94.000
'0:27.370',-0.042,-0.236,0.167,94.000
'0:27.380',-0.050,-0.235,0.168,94.000
'0:27.390',-0.059,-0.234,0.168,94.000
'0:27.400',-0.068,-0.233,0.169,94.000
'0:27.410',-0.069,-0.235,0.170,94.000
'0:27.420',-0.070,-0.238,0.170,94.000
'0:27.430',-0.071,-0.240,0.171,94.000
'0:27.440',-0.072,-0.243,0.172,94.000
'0:27.450',-0.073,-0.245,0.172,94.000
'0:27.460',-0.065,-0.250,0.173,94.000
'0:27.470',-0.058,-0.254,0.174,94.000
'0:27.480',-0.050,-0.259,0.174,94.000
'0:27.490',-0.043,-0.264,0.175,94.000
'0:27.500',-0.035,-0.268,0.176,94.000
'0:27.510',-0.027,-0.270,0.177,94.000
'0:27.520',-0.019,-0.272,0.177,94.000
'0:27.530',-0.011,-0.273,0.178,94.000
'0:27.540',-0.002,-0.275,0.179,94.000
'0:27.550',0.006,-0.277,0.180,94.000
'0:27.560',0.007,-0.278,0.180,94.000
'0:27.570',0.008,-0.279,0.181,94.000
'0:27.580',0.009,-0.280,0.182,94.000
'0:27.590',0.011,-0.281,0.183,94.000
'0:27.600',0.012,-0.282,0.184,94.000
'0:27.610',0.006,-0.283,0.185,94.000
'0:27.620',-0.000,-0.283,0.186,94.000
'0:27.630',-0.006,-0.284,0.186,94.000
'0:27.640',-0.013,-0.285,0.187,94.000
'0:27.650',-0.019,-0.285,0.188,94.000
'0:27.660',-0.021,-0.286,0.189,94.000
'0:27.670',-0.024,-0.288,0.190,94.000
'0:27.680',-0.027,-0.289,0.191,94.000
'0:27.690',-0.029,-0.290,0.192,94.000
'0:27.700',-0.032,-0.291,0.192,94.000
'0:27.710',-0.031,-0.292,0.193,94.000
'0:27.720',-0.030,-0.292,0.194,94.000
'0:27.730',-0.028,-0.293,0.195,94.000
'0:27.740',-0.027,-0.294,0.196,94.000
'0:27.750',-0.026,-0.295,0.197,94.000
'0:27.760',-0.026,-0.295,0.198,94.000
'0:27.770',-0.026,-0.295,0.199,94.000
'0:27.780',-0.027,-0.295,0.200,94.000
'0:27.790',-0.027,-0.295,0.201,94.000
'0:27.800',-0.027,-0.295,0.202,94.000
'0:27.810',-0.030,-0.298,0.203,94.000
'0:27.820',-0.033,-0.302,0.203,94.000
'0:27.830',-0.035,-0.305,0.205,94.000
'0:27.840',-0.038,-0.308,0.206,94.000
'0:27.850',-0.041,-0.312,0.207,94.000
'0:27.860',-0.043,-0.314,0.207,94.000
'0:27.870',-0.046,-0.316,0.208,94.000
'0:27.880',-0.049,-0.318,0.209,94.000
'0:27.890',-0.051,-0.320,0.210,94.000
'0:27.900',-0.054,-0.322,0.211,94.000
'0:27.910',-0.052,-0.321,0.212,94.000
'0:27.920',-0.051,-0.320,0.212,94.000
'0:27.930',-0.049,-0.318,0.213,94.000
'0:27.940',-0.048,-0.317,0.214,94.000
'0:27.950',-0.046,-0.316,0.215,94.000
'0:27.960',-0.050,-0.315,0.215,93.000
'0:27.970',-0.054,-0.313,0.216,93.000
'0:27.980',-0.058,-0.312,0.217,93.000
'0:27.990',-0.062,-0.311,0.218,93.000
'0:28.000',-0.066,-0.309,0.219,93.000
'0:28.010',-0.073,-0.308,0.219,93.000
'0:28.020',-0.082,-0.306,0.220,93.000
'0:28.030',-0.089,-0.305,0.221,93.000
'0:28.040',-0.098,-0.304,0.221,93.000
'0:28.050',-0.105,-0.302,0.222,93.000
'0:28.060',-0.103,-0.300,0.222,93.000
'0:28.070',-0.101,-0.297,0.223,93.000
'0:28.080',-0.099,-0.295,0.223,93.000
'0:28.090',-0.096,-0.293,0.223,93.000
'0:28.100',-0.094,-0.290,0.224,93.000
'0:28.110',-0.091,-0.289,0.223,93.000
'0:28.120',-0.088,-0.288,0.222,93.000
'0:28.130',-0.085,-0.287,0.222,93.000
'0:28.140',-0.081,-0.286,0.221,93.000
'0:28.150',-0.078,-0.285,0.221,93.000
'0:28.160',-0.074,-0.285,0.218,93.000
'0:28.170',-0.070,-0.284,0.215,93.000
'0:28.180',-0.066,-0.284,0.213,93.000
'0:28.190',-0.062,-0.283,0.210,93.000
'0:28.200',-0.057,-0.283,0.207,93.000
'0:28.210',-0.049,-0.281,0.203,93.000
'0:28.220',-0.041,-0.279,0.199,93.000
'0:28.230',-0.033,-0.277,0.195,93.000
'0:28.240',-0.024,-0.275,0.191,93.000
'0:28.250',-0.016,-0.272,0.187,93.000
'0:28.260',-0.018,-0.269,0.182,93.000
'0:28.270',-0.021,-0.266,0.178,93.000
'0:28.280',-0.023,-0.263,0.173,93.000
'0:28.290',-0.026,-0.260,0.169,93.000
'0:28.300',-0.028,-0.257,0.164,93.000
'0:28.310',-0.027,-0.253,0.160,93.000
'0:28.320',-0.027,-0.249,0.155,93.000
'0:28.330',-0.026,-0.246,0.151,93.000
'0:28.340',-0.025,-0.242,0.146,93.000
'0:28.350',-0.025,-0.238,0.141,93.000
'0:28.360',-0.022,-0.236,0.137,93.000
'0:28.370',-0.020,-0.233,0.133,93.000
'0:28.380',-0.017,-0.230,0.128,93.000
'0:28.390',-0.015,-0.228,0.124,93.000
'0:28.400',-0.013,-0.225,0.120,93.000
'0:28.410',-0.016,-0.221,0.115,93.000
'0:28.420',-0.019,-0.216,0.111,93.000
'0:28.430',-0.023,-0.211,0.107,93.000
'0:28.440',-0.026,-0.207,0.103,93.000
'0:28.450',-0.030,-0.202,0.099,93.000
'0:28.460',-0.030,-0.197,0.095,93.000
'0:28.470',-0.031,-0.192,0.092,93.000
'0:28.480',-0.032,-0.187,0.088,93.000
'0:28.490',-0.033,-0.182,0.085,93.000
'0:28.500',-0.034,-0.177,0.081,93.000
'0:28.510',-0.036,-0.172,0.078,93.000
'0:28.520',-0.038,-0.166,0.075,93.000
'0:28.530',-0.039,-0.161,0.072,93.000
'0:28.540',-0.041,-0.155,0.069,93.000
'0:28.550',-0.043,-0.150,0.066,93.000
'0:28.560',-0.043,-0.141,0.063,93.000
'0:28.570',-0.043,-0.132,0.061,93.000
'0:28.580',-0.044,-0.122,0.058,93.000
'0:28.590',-0.044,-0.113,0.055,93.000
'0:28.600',-0.044,-0.104,0.053,93.000
'0:28.610',-0.043,-0.100,0.050,93.000
'0:28.620',-0.043,-0.096,0.048,93.000
'0:28.630',-0.043,-0.093,0.046,93.000
'0:28.640',-0.042,-0.089,0.043,93.000
'0:28.650',-0.042,-0.086,0.041,93.000
'0:28.660',-0.043,-0.085,0.039,93.000
'0:28.670',-0.044,-0.084,0.036,93.000
'0:28.680',-0.046,-0.082,0.034,93.000
'0:28.690',-0.047,-0.081,0.032,93.000
'0:28.700',-0.048,-0.080,0.029,93.000
'0:28.710',-0.053,-0.079,0.027,93.000
'0:28.720',-0.058,-0.078,0.024,93.000
'0:28.730',-0.063,-0.077,0.022,93.000
'0:28.740',-0.068,-0.076,0.019,93.000
'0:28.750',-0.073,-0.075,0.017,93.000
'0:28.760',-0.070,-0.072,0.014,93.000
'0:28.770',-0.067,-0.069,0.012,93.000
'0:28.780',-0.063,-0.066,0.009,93.000
'0:28.790',-0.060,-0.062,0.006,93.000
'0:28.800',-0.057,-0.059,0.004,93.000
'0:28.810',-0.046,-0.051,0.001,93.000
'0:28.820',-0.036,-0.043,-0.002,93.000
'0:28.830',-0.026,-0.035,-0.004,93.000
'0:28.840',-0.015,-0.027,-0.007,93.000
'0:28.850',-0.005,-0.019,-0.010,93.000
'0:28.860',-0.006,-0.018,-0.013,93.000
'0:28.870',-0.007,-0.018,-0.016,93.000
'0:28.880',-0.008,-0.018,-0.019,93.000
'0:28.890',-0.010,-0.017,-0.021,93.000
'0:28.900',-0.011,-0.017,-0.024,93.000
'0:28.910',-0.013,-0.017,-0.027,93.000
'0:28.920',-0.015,-0.017,-0.030,93.000
'0:28.930',-0.018,-0.017,-0.033,93.000
'0:28.940',-0.020,-0.017,-0.036,93.000
'0:28.950',-0.022,-0.017,-0.039,93.000
'0:28.960',-0.018,-0.013,-0.042,93.000
'0:28.970',-0.014,-0.009,-0.045,93.000
'0:28.980',-0.010,-0.006,-0.049,93.000
'0:28.990',-0.006,-0.002,-0.052,93.000
'0:29.000',-0.002,0.002,-0.055,93.000
'0:29.010',-0.006,0.000,-0.058,93.000
'0:29.020',-0.010,-0.001,-0.062,93.000
'0:29.030',-0.014,-0.003,-0.065,93.000
'0:29.040',-0.018,-0.004,-0.068,93.000
'0:29.050',-0.022,-0.006,-0.071,93.000
'0:29.060',-0.027,-0.007,-0.075,93.000
'0:29.070',-0.032,-0.008,-0.078,93.000
'0:29.080',-0.037,-0.010,-0.081,93.000
'0:29.090',-0.043,-0.011,-0.085,93.000
'0:29.100',-0.048,-0.012,-0.088,93.000
'0:29.110',-0.037,-0.005,-0.092,93.000
'0:29.120',-0.025,0.003,-0.095,93.000
'0:29.130',-0.014,0.011,-0.099,93.000
'0:29.140',-0.003,0.019,-0.102,93.000
'0:29.150',0.009,0.026,-0.106,93.000
'0:29.160',0.008,0.029,-0.109,93.000
'0:29.170',0.007,0.031,-0.113,93.000
'0:29.180',0.006,0.033,-0.117,93.000
'0:29.190',0.005,0.035,-0.120,93.000
'0:29.200',0.004,0.037,-0.124,93.000
'0:29.210',-0.004,0.034,-0.128,93.000
'0:29.220',-0.013,0.031,-0.131,93.000
'0:29.230',-0.021,0.029,-0.135,93.000
'0:29.240',-0.030,0.026,-0.138,93.000
'0:29.250',-0.038,0.023,-0.142,93.000
'0:29.260',-0.037,0.027,-0.145,93.000
'0:29.270',-0.036,0.031,-0.149,93.000
'0:29.280',-0.035,0.034,-0.152,93.000
'0:29.290',-0.034,0.038,-0.156,93.000
'0:29.300',-0.033,0.042,-0.160,93.000
'0:29.310',-0.033,0.044,-0.163,93.000
'0:29.320',-0.033,0.046,-0.166,93.000
'0:29.330',-0.033,0.048,-0.170,93.000
'0:29.340',-0.032,0.050,-0.173,93.000
'0:29.350',-0.032,0.052,-0.176,93.000
'0:29.360',-0.027,0.057,-0.179,93.000
'0:29.370',-0.022,0.061,-0.182,93.000
'0:29.380',-0.017,0.066,-0.186,93.000
'0:29.390',-0.012,0.071,-0.189,93.000
'0:29.400',-0.007,0.075,-0.192,93.000
'0:29.410',-0.004,0.081,-0.195,93.000
'0:29.420',-0.001,0.087,-0.198,93.000
'0:29.430',0.002,0.092,-0.201,93.000
'0:29.440',0.005,0.098,-0.204,93.000
'0:29.450',0.007,0.103,-0.207,93.000
'0:29.460',0.007,0.105,-0.210,93.000
'0:29.470',0.006,0.108,-0.213,93.000
'0:29.480',0.006,0.110,-0.216,93.000
'0:29.490',0.005,0.112,-0.218,93.000
'0:29.500',0.004,0.114,-0.221,93.000
'0:29.510',-0.007,0.118,-0.224,93.000
'0:29.520',-0.019,0.122,-0.227,93.000
'0:29.530',-0.031,0.126,-0.230,93.000
'0:29.540',-0.043,0.130,-0.232,93.000
'0:29.550',-0.055,0.134,-0.235,93.000
'0:29.560',-0.056,0.139,-0.237,93.000
'0:29.570',-0.057,0.144,-0.240,93.000
'0:29.580',-0.058,0.149,-0.242,93.000
'0:29.590',-0.059,0.154,-0.245,93.000
'0:29.600',-0.060,0.159,-0.247,93.000
'0:29.610',-0.052,0.164,-0.249,93.000
'0:29.620',-0.044,0.168,-0.252,93.000
'0:29.630',-0.036,0.173,-0.254,93.000
'0:29.640',-0.028,0.177,-0.256,93.000
'0:29.650',-0.019,0.182,-0.259,93.000
'0:29.660',-0.019,0.186,-0.261,93.000
'0:29.670',-0.019,0.191,-0.263,93.000
'0:29.680',-0.019,0.195,-0.265,93.000
'0:29.690',-0.019,0.199,-0.267,93.000
'0:29.700',-0.018,0.203,-0.269,93.000
'0:29.710',-0.012,0.207,-0.270,93.000
'0:29.720',-0.005,0.212,-0.272,93.000
'0:29.730',0.001,0.216,-0.273,93.000
'0:29.740',0.008,0.220,-0.275,93.000
'0:29.750',0.014,0.224,-0.276,93.000
'0:29.760',0.018,0.229,-0.277,93.000
'0:29.770',0.022,0.233,-0.278,93.000
'0:29.780',0.026,0.238,-0.279,93.000
'0:29.790',0.030,0.242,-0.280,93.000
'0:29.800',0.034,0.247,-0.281,93.000
'0:29.810',0.038,0.251,-0.282,93.000
'0:29.820',0.042,0.254,-0.282,93.000
'0:29.830',0.045,0.258,-0.283,93.000
'0:29.840',0.049,0.261,-0.284,93.000
'0:29.850',0.053,0.265,-0.285,93.000
'0:29.860',0.056,0.268,-0.285,93.000
'0:29.870',0.059,0.272,-0.286,93.000
'0:29.880',0.061,0.275,-0.286,93.000
'0:29.890',0.064,0.279,-0.287,93.000
'0:29.900',0.066,0.282,-0.288,93.000
'0:29.910',0.069,0.286,-0.289,93.000
'0:29.920',0.071,0.290,-0.289,93.000
'0:29.930',0.074,0.294,-0.290,93.000
'0:29.940',0.076,0.298,-0.291,93.000
'0:29.950',0.079,0.302,-0.292,93.000
'0:29.960',0.072,0.307,-0.293,93.000
'0:29.970',0.065,0.313,-0.294,93.000
'0:29.980',0.058,0.318,-0.295,93.000
'0:29.990',0.051,0.324,-0.296,93.000
'0:30.000',0.044,0.329,-0.297,93.000
'0:30.010',0.040,0.334,-0.299,93.000
'0:30.020',0.035,0.338,-0.300,93.000
'0:30.030',0.031,0.343,-0.301,93.000
'0:30.040',0.027,0.347,-0.303,93.000
'0:30.050',0.023,0.352,-0.304,93.000
'0:30.060',0.025,0.355,-0.306,93.000
'0:30.070',0.028,0.359,-0.307,93.000
'0:30.080',0.031,0.363,-0.309,93.000
'0:30.090',0.034,0.366,-0.310,93.000
'0:30.100',0.036,0.370,-0.312,93.000
'0:30.110',0.027,0.373,-0.313,93.000
'0:30.120',0.018,0.377,-0.315,93.000
'0:30.130',0.009,0.380,-0.316,93.000
'0:30.140',-0.000,0.384,-0.318,93.000
'0:30.150',-0.010,0.388,-0.319,93.000
'0:30.160',-0.008,0.389,-0.320,93.000
'0:30.170',-0.007,0.391,-0.322,93.000
'0:30.180',-0.005,0.393,-0.323,93.000
'0:30.190',-0.004,0.395,-0.325,93.000
'0:30.200',-0.002,0.397,-0.326,93.000
'0:30.210',-0.003,0.401,-0.328,93.000
'0:30.220',-0.003,0.404,-0.329,93.000
'0:30.230',-0.003,0.408,-0.331,93.000
'0:30.240',-0.003,0.411,-0.332,93.000
'0:30.250',-0.004,0.414,-0.333,93.000
'0:30.260',-0.010,0.414,-0.334,93.000
'0:30.270',-0.017,0.414,-0.336,93.000
'0:30.280',-0.024,0.413,-0.337,93.000
'0:30.290',-0.030,0.413,-0.338,93.000
'0:30.300',-0.037,0.413,-0.339,93.000
'0:30.310',-0.032,0.408,-0.340,93.000
'0:30.320',-0.027,0.404,-0.340,93.000
'0:30.330',-0.022,0.399,-0.341,93.000
'0:30.340',-0.018,0.394,-0.342,93.000
'0:30.350',-0.013,0.390,-0.342,93.000
'0:30.360',-0.005,0.386,-0.342,93.000
'0:30.370',0.002,0.382,-0.342,93.000
'0:30.380',0.009,0.379,-0.342,93.000
'0:30.390',0.016,0.375,-0.341,93.000
'0:30.400',0.024,0.371,-0.341,93.000
'0:30.410',0.026,0.367,-0.340,93.000
'0:30.420',0.029,0.363,-0.338,93.000
'0:30.430',0.031,0.359,-0.336,93.000
'0:30.440',0.034,0.355,-0.335,93.000
'0:30.450',0.036,0.351,-0.333,93.000
'0:30.460',0.040,0.346,-0.331,93.000
'0:30.470',0.044,0.341,-0.328,93.000
'0:30.480',0.049,0.336,-0.325,93.000
'0:30.490',0.053,0.331,-0.323,93.000
'0:30.500',0.057,0.326,-0.320,93.000
'0:30.510',0.059,0.321,-0.317,93.000
'0:30.520',0.060,0.317,-0.314,93.000
'0:30.530',0.062,0.313,-0.310,93.000
'0:30.540',0.064,0.309,-0.307,93.000
'0:30.550',0.066,0.304,-0.304,93.000
'0:30.560',0.067,0.301,-0.301,93.000
'0:30.570',0.068,0.297,-0.297,93.000
'0:30.580',0.070,0.294,-0.294,93.000
'0:30.590',0.071,0.291,-0.290,93.000
'0:30.600',0.072,0.287,-0.287,93.000
'0:30.610',0.073,0.283,-0.283,93.000
'0:30.620',0.073,0.279,-0.279,93.000
'0:30.630',0.073,0.275,-0.275,93.000
'0:30.640',0.073,0.271,-0.271,93.000
'0:30.650',0.074,0.267,-0.268,93.000
'0:30.660',0.070,0.262,-0.264,93.000
'0:30.670',0.066,0.258,-0.260,93.000
'0:30.680',0.062,0.253,-0.256,93.000
'0:30.690',0.058,0.249,-0.252,93.000
'0:30.700',0.054,0.244,-0.249,93.000
'0:30.710',0.051,0.241,-0.245,93.000
'0:30.720',0.049,0.237,-0.241,93.000
'0:30.730',0.047,0.234,-0.237,93.000
'0:30.740',0.044,0.231,-0.234,93.000
'0:30.750',0.042,0.228,-0.230,93.000
'0:30.760',0.039,0.224,-0.226,93.000
'0:30.770',0.036,0.220,-0.222,93.000
'0:30.780',0.033,0.217,-0.219,93.000
'0:30.790',0.030,0.213,-0.215,93.000
'0:30.800',0.027,0.209,-0.211,93.000
'0:30.810',0.025,0.205,-0.207,93.000
'0:30.820',0.022,0.200,-0.203,93.000
'0:30.830',0.019,0.195,-0.200,93.000
'0:30.840',0.016,0.191,-0.196,93.000
'0:30.850',0.014,0.186,-0.192,93.000
'0:30.860',0.002,0.183,-0.188,93.000
'0:30.870',-0.010,0.179,-0.184,93.000
'0:30.880',-0.021,0.176,-0.181,93.000
'0:30.890',-0.033,0.173,-0.177,93.000
'0:30.900',-0.045,0.169,-0.173,93.000
'0:30.910',-0.051,0.166,-0.170,93.000
'0:30.920',-0.056,0.163,-0.166,93.000
'0:30.930',-0.062,0.160,-0.162,93.000
'0:30.940',-0.068,0.157,-0.158,93.000
'0:30.950',-0.074,0.153,-0.155,93.000
'0:30.960',-0.069,0.147,-0.151,93.000
'0:30.970',-0.064,0.141,-0.147,93.000
'0:30.980',-0.059,0.134,-0.143,93.000
'0:30.990',-0.054,0.128,-0.140,93.000
'0:31.000',-0.049,0.122,-0.136,93.000
'0:31.010',-0.043,0.116,-0.132,93.000
'0:31.020',-0.037,0.110,-0.129,93.000
'0:31.030',-0.031,0.104,-0.125,93.000
'0:31.040',-0.026,0.099,-0.121,93.000
'0:31.050',-0.020,0.093,-0.118,93.000
'0:31.060',-0.022,0.089,-0.114,93.000
'0:31.070',-0.024,0.085,-0.110,93.000
'0:31.080',-0.027,0.081,-0.107,93.000
'0:31.090',-0.029,0.077,-0.103,93.000
'0:31.100',-0.031,0.073,-0.100,93.000
'0:31.110',-0.033,0.069,-0.096,93.000
'0:31.120',-0.034,0.064,-0.092,93.000
'0:31.130',-0.036,0.059,-0.089,93.000
'0:31.140',-0.038,0.055,-0.085,93.000
'0:31.150',-0.040,0.050,-0.081,93.000
'0:31.160',-0.032,0.047,-0.078,93.000
'0:31.170',-0.024,0.045,-0.074,93.000
'0:31.180',-0.017,0.042,-0.071,93.000
'0:31.190',-0.009,0.039,-0.067,93.000
'0:31.200',-0.001,0.037,-0.064,93.000
'0:31.210',-0.008,0.031,-0.060,93.000
'0:31.220',-0.014,0.026,-0.057,93.000
'0:31.230',-0.021,0.021,-0.053,93.000
'0:31.240',-0.027,0.015,-0.050,93.000
'0:31.250',-0.034,0.010,-0.046,93.000
'0:31.260',-0.030,0.011,-0.043,93.000
'0:31.270',-0.027,0.013,-0.040,93.000
'0:31.280',-0.023,0.014,-0.036,93.000
'0:31.290',-0.019,0.015,-0.033,93.000
'0:31.300',-0.016,0.017,-0.030,93.000
'0:31.310',-0.009,0.018,-0.026,93.000
'0:31.320',-0.003,0.020,-0.023,93.000
'0:31.330',0.003,0.022,-0.020,93.000
'0:31.340',0.009,0.023,-0.017,93.000
'0:31.350',0.015,0.025,-0.014,93.000
'0:31.360',0.011,0.022,-0.011,93.000
'0:31.370',0.007,0.019,-0.008,93.000
'0:31.380',0.003,0.016,-0.005,93.000
'0:31.390',-0.000,0.012,-0.002,93.000
'0:31.400',-0.004,0.009,0.001,93.000
'0:31.410',-0.001,0.010,0.004,93.000
'0:31.420',0.002,0.011,0.007,93.000
'0:31.430',0.005,0.012,0.010,93.000
'0:31.440',0.008,0.013,0.013,93.000
'0:31.450',0.011,0.014,0.016,93.000
'0:31.460',0.007,0.010,0.019,93.000
'0:31.470',0.003,0.006,0.022,93.000
'0:31.480',-0.001,0.003,0.025,93.000
'0:31.490',-0.005,-0.001,0.028,93.000
'0:31.500',-0.009,-0.004,0.031,93.000
'0:31.510',-0.011,-0.007,0.034,93.000
'0:31.520',-0.013,-0.009,0.037,93.000
'0:31.530',-0.016,-0.012,0.039,93.000
'0:31.540',-0.018,-0.014,0.042,93.000
'0:31.550',-0.020,-0.017,0.045,93.000
'0:31.560',-0.019,-0.018,0.047,93.000
'0:31.570',-0.018,-0.019,0.050,93.000
'0:31.580',-0.018,-0.019,0.052,93.000
'0:31.590',-0.017,-0.020,0.055,93.000
