'Elapsed time','ECG','Resp C','Resp A','Resp N','SpO2'
'hh:mm:ss.mmm','mV','mV','mV','mV','mV'
'0:00.000',-0.020,-0.085,0.220,-0.419,96.000
'0:00.010',-0.020,-0.084,0.209,-0.409,96.000
'0:00.020',-0.025,-0.083,0.198,-0.400,96.000
'0:00.030',-0.010,-0.083,0.187,-0.390,96.000
'0:00.040',-0.010,-0.082,0.177,-0.381,96.000
'0:00.050',-0.015,-0.081,0.166,-0.371,96.000
'0:00.060',-0.010,-0.082,0.153,-0.360,96.000
'0:00.070',-0.020,-0.083,0.140,-0.349,96.000
'0:00.080',-0.025,-0.084,0.128,-0.339,96.000
'0:00.090',-0.040,-0.085,0.115,-0.328,96.000
'0:00.100',-0.035,-0.086,0.102,-0.317,96.000
'0:00.110',-0.055,-0.085,0.090,-0.305,96.000
'0:00.120',-0.040,-0.084,0.077,-0.293,96.000
'0:00.130',-0.055,-0.083,0.065,-0.281,96.000
'0:00.140',-0.055,-0.082,0.053,-0.269,96.000
'0:00.150',-0.045,-0.081,0.040,-0.257,96.000
'0:00.160',0.005,-0.079,0.030,-0.244,96.000
'0:00.170',0.030,-0.078,0.020,-0.232,96.000
'0:00.180',0.060,-0.077,0.011,-0.220,96.000
'0:00.190',0.055,-0.075,0.001,-0.208,96.000
'0:00.200',0.120,-0.074,-0.009,-0.196,96.000
'0:00.210',0.085,-0.075,-0.014,-0.184,96.000
'0:00.220',0.055,-0.075,-0.019,-0.172,96.000
'0:00.230',-0.010,-0.075,-0.024,-0.160,96.000
'0:00.240',-0.005,-0.076,-0.029,-0.148,96.000
'0:00.250',-0.090,-0.076,-0.034,-0.136,96.000
'0:00.260',-0.095,-0.075,-0.038,-0.124,96.000
'0:00.270',-0.110,-0.075,-0.041,-0.113,96.000
'0:00.280',-0.095,-0.074,-0.044,-0.102,96.000
'0:00.290',-0.115,-0.073,-0.047,-0.090,96.000
'0:00.300',-0.095,-0.073,-0.050,-0.079,96.000
'0:00.310',-0.120,-0.073,-0.053,-0.068,96.000
'0:00.320',-0.090,-0.072,-0.055,-0.057,96.000
'0:00.330',-0.080,-0.072,-0.057,-0.046,96.000
'0:00.340',0.200,-0.072,-0.060,-0.036,96.000
'0:00.350',0.535,-0.072,-0.062,-0.025,96.000
'0:00.360',-0.320,-0.072,-0.065,-0.015,96.000
'0:00.370',-0.355,-0.072,-0.067,-0.005,96.000
'0:00.380',-0.195,-0.072,-0.069,0.005,96.000
'0:00.390',-0.090,-0.071,-0.072,0.015,96.000
'0:00.400',-0.085,-0.071,-0.074,0.025,96.000
'0:00.410',-0.105,-0.071,-0.075,0.034,96.000
'0:00.420',-0.090,-0.071,-0.077,0.043,96.000
'0:00.430',-0.095,-0.071,-0.078,0.052,96.000
'0:00.440',-0.075,-0.071,-0.080,0.061,96.000
'0:00.450',-0.095,-0.071,-0.081,0.070,96.000
'0:00.460',-0.070,-0.071,-0.084,0.079,96.000
'0:00.470',-0.085,-0.071,-0.087,0.087,96.000
'0:00.480',-0.060,-0.070,-0.090,0.095,96.000
'0:00.490',-0.065,-0.070,-0.093,0.103,96.000
'0:00.500',-0.030,-0.070,-0.095,0.111,96.000
'0:00.510',-0.025,-0.069,-0.105,0.118,96.000
'0:00.520',0.000,-0.069,-0.114,0.126,96.000
'0:00.530',0.010,-0.068,-0.124,0.133,96.000
'0:00.540',0.035,-0.067,-0.133,0.140,96.000
'0:00.550',0.055,-0.067,-0.142,0.147,96.000
'0:00.560',0.110,-0.066,-0.153,0.153,96.000
'0:00.570',0.130,-0.066,-0.164,0.159,96.000
'0:00.580',0.175,-0.065,-0.174,0.165,96.000
'0:00.590',0.210,-0.065,-0.185,0.171,96.000
'0:00.600',0.240,-0.064,-0.195,0.177,96.000
'0:00.610',0.255,-0.063,-0.203,0.183,96.000
'0:00.620',0.285,-0.062,-0.211,0.188,96.000
'0:00.630',0.295,-0.061,-0.220,0.194,96.000
'0:00.640',0.290,-0.060,-0.228,0.199,96.000
'0:00.650',0.230,-0.059,-0.236,0.205,96.000
'0:00.660',0.200,-0.060,-0.242,0.209,96.000
'0:00.670',0.115,-0.060,-0.249,0.214,96.000
'0:00.680',0.055,-0.061,-0.255,0.219,96.000
'0:00.690',0.010,-0.061,-0.261,0.224,96.000
'0:00.700',-0.015,-0.062,-0.267,0.229,96.000
'0:00.710',-0.030,-0.063,-0.271,0.233,96.000
'0:00.720',-0.045,-0.063,-0.274,0.237,96.000
'0:00.730',-0.040,-0.064,-0.278,0.241,96.000
'0:00.740',-0.035,-0.064,-0.282,0.245,96.000
'0:00.750',-0.020,-0.065,-0.285,0.250,96.000
'0:00.760',-0.035,-0.065,-0.287,0.254,96.000
'0:00.770',-0.020,-0.065,-0.290,0.257,96.000
'0:00.780',-0.025,-0.065,-0.292,0.261,96.000
'0:00.790',-0.020,-0.065,-0.294,0.265,96.000
'0:00.800',-0.030,-0.065,-0.297,0.269,96.000
'0:00.810',-0.020,-0.065,-0.299,0.272,96.000
'0:00.820',-0.030,-0.065,-0.301,0.276,96.000
'0:00.830',-0.030,-0.065,-0.304,0.279,96.000
'0:00.840',-0.045,-0.065,-0.306,0.283,96.000
'0:00.850',-0.035,-0.065,-0.308,0.286,96.000
'0:00.860',-0.045,-0.065,-0.309,0.289,96.000
'0:00.870',-0.045,-0.065,-0.309,0.293,96.000
'0:00.880',-0.065,-0.065,-0.310,0.296,96.000
'0:00.890',-0.055,-0.065,-0.311,0.299,96.000
'0:00.900',-0.040,-0.065,-0.311,0.302,96.000
'0:00.910',0.035,-0.065,-0.310,0.304,96.000
'0:00.920',0.050,-0.065,-0.309,0.307,96.000
'0:00.930',0.070,-0.065,-0.308,0.310,96.000
'0:00.940',0.060,-0.066,-0.307,0.313,96.000
'0:00.950',0.105,-0.066,-0.306,0.316,96.000
'0:00.960',0.085,-0.066,-0.305,0.318,96.000
'0:00.970',0.030,-0.066,-0.304,0.320,96.000
'0:00.980',0.000,-0.066,-0.303,0.323,96.000
'0:00.990',-0.035,-0.066,-0.302,0.325,96.000
'0:01.000',-0.100,-0.066,-0.301,0.328,96.000
'0:01.010',-0.110,-0.068,-0.300,0.330,96.000
'0:01.020',-0.120,-0.069,-0.299,0.332,96.000
'0:01.030',-0.090,-0.070,-0.298,0.334,96.000
'0:01.040',-0.110,-0.071,-0.297,0.336,96.000
'0:01.050',-0.105,-0.073,-0.296,0.338,96.000
'0:01.060',-0.125,-0.073,-0.296,0.339,96.000
'0:01.070',-0.085,-0.074,-0.295,0.341,96.000
'0:01.080',-0.060,-0.074,-0.295,0.343,96.000
'0:01.090',0.195,-0.075,-0.294,0.345,96.000
'0:01.100',0.410,-0.075,-0.294,0.346,96.000
'0:01.110',-0.455,-0.075,-0.292,0.348,96.000
'0:01.120',-0.385,-0.075,-0.290,0.349,96.000
'0:01.130',-0.200,-0.075,-0.288,0.351,96.000
'0:01.140',-0.085,-0.075,-0.286,0.352,96.000
'0:01.150',-0.085,-0.075,-0.284,0.354,96.000
'0:01.160',-0.105,-0.076,-0.280,0.355,96.000
'0:01.170',-0.095,-0.077,-0.276,0.356,96.000
'0:01.180',-0.130,-0.077,-0.271,0.357,96.000
'0:01.190',-0.095,-0.078,-0.267,0.358,96.000
'0:01.200',-0.105,-0.079,-0.263,0.359,96.000
'0:01.210',-0.075,-0.079,-0.257,0.358,96.000
'0:01.220',-0.090,-0.079,-0.252,0.357,96.000
'0:01.230',-0.055,-0.079,-0.247,0.356,96.000
'0:01.240',-0.070,-0.079,-0.242,0.355,96.000
'0:01.250',-0.045,-0.079,-0.237,0.354,96.000
'0:01.260',-0.035,-0.079,-0.232,0.350,96.000
'0:01.270',0.000,-0.079,-0.226,0.346,96.000
'0:01.280',0.000,-0.078,-0.221,0.341,96.000
'0:01.290',0.050,-0.078,-0.215,0.337,96.000
'0:01.300',0.060,-0.078,-0.210,0.332,96.000
'0:01.310',0.120,-0.079,-0.201,0.325,96.000
'0:01.320',0.125,-0.080,-0.193,0.317,96.000
'0:01.330',0.185,-0.081,-0.184,0.309,96.000
'0:01.340',0.200,-0.083,-0.175,0.302,96.000
'0:01.350',0.250,-0.084,-0.166,0.294,96.000
'0:01.360',0.270,-0.084,-0.160,0.285,96.000
'0:01.370',0.300,-0.084,-0.153,0.275,96.000
'0:01.380',0.315,-0.084,-0.146,0.266,96.000
'0:01.390',0.280,-0.085,-0.140,0.256,96.000
'0:01.400',0.245,-0.085,-0.133,0.247,96.000
'0:01.410',0.175,-0.084,-0.131,0.236,96.000
'0:01.420',0.095,-0.083,-0.128,0.225,96.000
'0:01.430',0.045,-0.082,-0.125,0.214,96.000
'0:01.440',0.000,-0.081,-0.122,0.204,96.000
'0:01.450',-0.040,-0.081,-0.120,0.193,96.000
'0:01.460',-0.035,-0.081,-0.115,0.182,96.000
'0:01.470',-0.045,-0.081,-0.110,0.171,96.000
'0:01.480',-0.045,-0.082,-0.105,0.161,96.000
'0:01.490',-0.055,-0.082,-0.100,0.150,96.000
'0:01.500',-0.050,-0.082,-0.095,0.139,96.000
'0:01.510',-0.040,-0.082,-0.092,0.129,96.000
'0:01.520',-0.045,-0.082,-0.089,0.118,96.000
'0:01.530',-0.020,-0.081,-0.086,0.108,96.000
'0:01.540',-0.050,-0.081,-0.084,0.098,96.000
'0:01.550',-0.030,-0.081,-0.081,0.087,96.000
'0:01.560',-0.050,-0.081,-0.079,0.078,96.000
'0:01.570',-0.040,-0.082,-0.077,0.069,96.000
'0:01.580',-0.055,-0.082,-0.076,0.059,96.000
'0:01.590',-0.060,-0.083,-0.074,0.050,96.000
'0:01.600',-0.055,-0.083,-0.072,0.041,96.000
'0:01.610',-0.045,-0.083,-0.069,0.033,96.000
'0:01.620',-0.060,-0.083,-0.066,0.024,96.000
'0:01.630',-0.065,-0.082,-0.063,0.016,96.000
'0:01.640',-0.055,-0.082,-0.060,0.008,96.000
'0:01.650',0.000,-0.082,-0.057,-0.000,96.000
'0:01.660',0.030,-0.082,-0.053,-0.008,96.000
'0:01.670',0.055,-0.082,-0.050,-0.016,96.000
'0:01.680',0.035,-0.082,-0.046,-0.023,96.000
'0:01.690',0.110,-0.082,-0.043,-0.031,96.000
'0:01.700',0.085,-0.082,-0.040,-0.039,96.000
'0:01.710',0.060,-0.082,-0.035,-0.046,96.000
'0:01.720',0.000,-0.083,-0.031,-0.054,96.000
'0:01.730',-0.030,-0.084,-0.027,-0.061,96.000
'0:01.740',-0.115,-0.084,-0.023,-0.069,96.000
'0:01.750',-0.125,-0.085,-0.019,-0.076,96.000
'0:01.760',-0.125,-0.085,-0.014,-0.084,96.000
'0:01.770',-0.105,-0.084,-0.008,-0.091,96.000
'0:01.780',-0.120,-0.084,-0.003,-0.099,96.000
'0:01.790',-0.105,-0.083,0.002,-0.107,96.000
'0:01.800',-0.135,-0.083,0.007,-0.114,96.000
'0:01.810',-0.120,-0.084,0.015,-0.122,96.000
'0:01.820',-0.080,-0.085,0.023,-0.129,96.000
'0:01.830',0.135,-0.086,0.031,-0.136,96.000
'0:01.840',0.465,-0.087,0.039,-0.144,96.000
'0:01.850',-0.235,-0.088,0.047,-0.151,96.000
'0:01.860',-0.385,-0.089,0.056,-0.158,96.000
'0:01.870',-0.265,-0.090,0.065,-0.165,96.000
'0:01.880',-0.150,-0.091,0.074,-0.172,96.000
'0:01.890',-0.125,-0.092,0.083,-0.179,96.000
'0:01.900',-0.130,-0.092,0.092,-0.186,96.000
'0:01.910',-0.100,-0.092,0.100,-0.192,96.000
'0:01.920',-0.120,-0.091,0.108,-0.199,96.000
'0:01.930',-0.100,-0.090,0.115,-0.205,96.000
'0:01.940',-0.120,-0.089,0.123,-0.212,96.000
'0:01.950',-0.080,-0.088,0.131,-0.218,96.000
'0:01.960',-0.090,-0.088,0.139,-0.224,96.000
'0:01.970',-0.065,-0.087,0.148,-0.230,96.000
'0:01.980',-0.070,-0.086,0.156,-0.236,96.000
'0:01.990',-0.040,-0.086,0.164,-0.243,96.000
'0:02.000',-0.040,-0.085,0.172,-0.249,96.000
'0:02.010',-0.005,-0.084,0.180,-0.255,96.000
'0:02.020',0.005,-0.084,0.187,-0.260,96.000
'0:02.030',0.025,-0.083,0.194,-0.266,96.000
'0:02.040',0.055,-0.083,0.201,-0.272,96.000
'0:02.050',0.080,-0.082,0.208,-0.278,96.000
'0:02.060',0.110,-0.082,0.214,-0.283,96.000
'0:02.070',0.180,-0.083,0.220,-0.288,96.000
'0:02.080',0.190,-0.083,0.226,-0.294,96.000
'0:02.090',0.245,-0.083,0.232,-0.299,96.000
'0:02.100',0.260,-0.083,0.238,-0.304,96.000
'0:02.110',0.285,-0.082,0.243,-0.309,96.000
'0:02.120',0.300,-0.082,0.248,-0.315,96.000
'0:02.130',0.290,-0.082,0.253,-0.320,96.000
'0:02.140',0.255,-0.082,0.258,-0.325,96.000
'0:02.150',0.220,-0.081,0.263,-0.330,96.000
'0:02.160',0.115,-0.081,0.266,-0.334,96.000
'0:02.170',0.055,-0.081,0.268,-0.338,96.000
'0:02.180',0.010,-0.080,0.271,-0.342,96.000
'0:02.190',-0.015,-0.080,0.273,-0.346,96.000
'0:02.200',-0.055,-0.079,0.275,-0.351,96.000
'0:02.210',-0.035,-0.079,0.280,-0.354,96.000
'0:02.220',-0.040,-0.079,0.285,-0.358,96.000
'0:02.230',-0.060,-0.078,0.290,-0.361,96.000
'0:02.240',-0.045,-0.078,0.295,-0.365,96.000
'0:02.250',-0.030,-0.077,0.299,-0.369,96.000
'0:02.260',-0.035,-0.077,0.303,-0.372,96.000
'0:02.270',-0.035,-0.077,0.307,-0.375,96.000
'0:02.280',-0.030,-0.077,0.311,-0.378,96.000
'0:02.290',-0.035,-0.076,0.314,-0.381,96.000
'0:02.300',-0.040,-0.076,0.318,-0.385,96.000
'0:02.310',-0.055,-0.076,0.316,-0.387,96.000
'0:02.320',-0.055,-0.077,0.315,-0.389,96.000
'0:02.330',-0.045,-0.077,0.313,-0.392,96.000
'0:02.340',-0.050,-0.077,0.311,-0.394,96.000
'0:02.350',-0.060,-0.078,0.310,-0.396,96.000
'0:02.360',-0.050,-0.076,0.305,-0.397,96.000
'0:02.370',-0.050,-0.075,0.301,-0.399,96.000
'0:02.380',-0.050,-0.074,0.296,-0.400,96.000
'0:02.390',-0.025,-0.073,0.292,-0.401,96.000
'0:02.400',0.045,-0.072,0.288,-0.402,96.000
'0:02.410',0.045,-0.071,0.280,-0.402,96.000
'0:02.420',0.050,-0.070,0.272,-0.401,96.000
'0:02.430',0.120,-0.069,0.264,-0.400,96.000
'0:02.440',0.095,-0.068,0.256,-0.399,96.000
'0:02.450',0.045,-0.067,0.247,-0.398,96.000
'0:02.460',-0.010,-0.067,0.240,-0.394,96.000
'0:02.470',-0.010,-0.067,0.232,-0.390,96.000
'0:02.480',-0.100,-0.067,0.225,-0.386,96.000
'0:02.490',-0.120,-0.067,0.217,-0.382,96.000
'0:02.500',-0.110,-0.067,0.209,-0.378,96.000
'0:02.510',-0.105,-0.067,0.201,-0.371,96.000
'0:02.520',-0.110,-0.067,0.192,-0.363,96.000
'0:02.530',-0.110,-0.067,0.184,-0.356,96.000
'0:02.540',-0.125,-0.067,0.175,-0.349,96.000
'0:02.550',-0.115,-0.067,0.167,-0.342,96.000
'0:02.560',-0.070,-0.068,0.157,-0.333,96.000
'0:02.570',0.160,-0.069,0.147,-0.324,96.000
'0:02.580',0.515,-0.070,0.136,-0.315,96.000
'0:02.590',-0.135,-0.071,0.126,-0.306,96.000
'0:02.600',-0.370,-0.072,0.116,-0.297,96.000
'0:02.610',-0.230,-0.071,0.107,-0.286,96.000
'0:02.620',-0.120,-0.071,0.098,-0.276,96.000
'0:02.630',-0.090,-0.070,0.089,-0.266,96.000
'0:02.640',-0.100,-0.069,0.079,-0.256,96.000
'0:02.650',-0.105,-0.069,0.070,-0.246,96.000
'0:02.660',-0.105,-0.068,0.059,-0.235,96.000
'0:02.670',-0.090,-0.067,0.048,-0.225,96.000
'0:02.680',-0.105,-0.066,0.037,-0.214,96.000
'0:02.690',-0.075,-0.065,0.026,-0.203,96.000
'0:02.700',-0.090,-0.064,0.015,-0.193,96.000
'0:02.710',-0.065,-0.064,0.008,-0.182,96.000
'0:02.720',-0.070,-0.064,0.002,-0.171,96.000
'0:02.730',-0.045,-0.064,-0.005,-0.160,96.000
'0:02.740',-0.040,-0.064,-0.012,-0.150,96.000
'0:02.750',0.000,-0.064,-0.019,-0.139,96.000
'0:02.760',0.000,-0.063,-0.022,-0.128,96.000
'0:02.770',0.040,-0.062,-0.025,-0.117,96.000
'0:02.780',0.055,-0.062,-0.029,-0.106,96.000
'0:02.790',0.090,-0.061,-0.032,-0.095,96.000
'0:02.800',0.110,-0.060,-0.035,-0.084,96.000
'0:02.810',0.160,-0.061,-0.038,-0.073,96.000
'0:02.820',0.195,-0.061,-0.041,-0.062,96.000
'0:02.830',0.225,-0.061,-0.044,-0.052,96.000
'0:02.840',0.260,-0.061,-0.047,-0.041,96.000
'0:02.850',0.280,-0.062,-0.050,-0.030,96.000
'0:02.860',0.280,-0.061,-0.052,-0.020,96.000
'0:02.870',0.300,-0.061,-0.054,-0.010,96.000
'0:02.880',0.265,-0.060,-0.056,0.000,96.000
'0:02.890',0.205,-0.059,-0.059,0.010,96.000
'0:02.900',0.130,-0.059,-0.061,0.021,96.000
'0:02.910',0.070,-0.059,-0.063,0.030,96.000
'0:02.920',0.010,-0.058,-0.065,0.040,96.000
'0:02.930',-0.020,-0.058,-0.067,0.049,96.000
'0:02.940',-0.045,-0.058,-0.069,0.059,96.000
'0:02.950',-0.035,-0.058,-0.071,0.068,96.000
'0:02.960',-0.030,-0.058,-0.074,0.077,96.000
'0:02.970',-0.030,-0.059,-0.077,0.086,96.000
'0:02.980',-0.035,-0.059,-0.080,0.095,96.000
'0:02.990',-0.045,-0.060,-0.083,0.104,96.000
'0:03.000',-0.040,-0.061,-0.085,0.113,96.000
'0:03.010',-0.025,-0.061,-0.097,0.121,96.000
'0:03.020',-0.020,-0.061,-0.108,0.129,96.000
'0:03.030',-0.030,-0.061,-0.120,0.137,96.000
'0:03.040',-0.030,-0.061,-0.131,0.145,96.000
'0:03.050',-0.045,-0.062,-0.142,0.153,96.000
'0:03.060',-0.045,-0.062,-0.155,0.161,96.000
'0:03.070',-0.040,-0.062,-0.167,0.168,96.000
'0:03.080',-0.050,-0.062,-0.179,0.175,96.000
'0:03.090',-0.060,-0.063,-0.191,0.182,96.000
'0:03.100',-0.055,-0.063,-0.203,0.189,96.000
'0:03.110',-0.070,-0.062,-0.212,0.196,96.000
'0:03.120',-0.070,-0.061,-0.221,0.202,96.000
'0:03.130',-0.025,-0.060,-0.229,0.209,96.000
'0:03.140',0.040,-0.059,-0.238,0.215,96.000
'0:03.150',0.045,-0.058,-0.246,0.222,96.000
'0:03.160',0.070,-0.058,-0.253,0.227,96.000
'0:03.170',0.105,-0.058,-0.260,0.233,96.000
'0:03.180',0.105,-0.058,-0.267,0.239,96.000
'0:03.190',0.080,-0.058,-0.274,0.244,96.000
'0:03.200',0.000,-0.058,-0.281,0.250,96.000
'0:03.210',0.000,-0.059,-0.284,0.254,96.000
'0:03.220',-0.060,-0.059,-0.288,0.259,96.000
'0:03.230',-0.110,-0.059,-0.291,0.264,96.000
'0:03.240',-0.100,-0.059,-0.295,0.269,96.000
'0:03.250',-0.100,-0.059,-0.299,0.273,96.000
'0:03.260',-0.110,-0.059,-0.303,0.278,96.000
'0:03.270',-0.115,-0.059,-0.307,0.282,96.000
'0:03.280',-0.110,-0.058,-0.311,0.286,96.000
'0:03.290',-0.125,-0.058,-0.316,0.290,96.000
'0:03.300',-0.085,-0.058,-0.320,0.295,96.000
'0:03.310',0.055,-0.058,-0.322,0.298,96.000
'0:03.320',0.325,-0.058,-0.324,0.302,96.000
'0:03.330',0.000,-0.058,-0.327,0.306,96.000
'0:03.340',-0.415,-0.058,-0.329,0.310,96.000
'0:03.350',-0.280,-0.058,-0.331,0.314,96.000
'0:03.360',-0.140,-0.058,-0.334,0.317,96.000
'0:03.370',-0.085,-0.058,-0.337,0.320,96.000
'0:03.380',-0.110,-0.057,-0.340,0.324,96.000
'0:03.390',-0.105,-0.057,-0.343,0.327,96.000
'0:03.400',-0.105,-0.057,-0.346,0.330,96.000
'0:03.410',-0.100,-0.058,-0.349,0.333,96.000
'0:03.420',-0.105,-0.059,-0.352,0.336,96.000
'0:03.430',-0.100,-0.060,-0.355,0.339,96.000
'0:03.440',-0.080,-0.062,-0.358,0.342,96.000
'0:03.450',-0.075,-0.063,-0.361,0.345,96.000
'0:03.460',-0.060,-0.063,-0.362,0.348,96.000
'0:03.470',-0.050,-0.063,-0.363,0.350,96.000
'0:03.480',-0.030,-0.063,-0.364,0.353,96.000
'0:03.490',-0.010,-0.063,-0.365,0.356,96.000
'0:03.500',0.000,-0.063,-0.367,0.358,96.000
'0:03.510',0.025,-0.063,-0.367,0.361,96.000
'0:03.520',0.060,-0.063,-0.368,0.363,96.000
'0:03.530',0.090,-0.063,-0.369,0.366,96.000
'0:03.540',0.120,-0.063,-0.370,0.368,96.000
'0:03.550',0.160,-0.063,-0.371,0.371,96.000
'0:03.560',0.205,-0.063,-0.372,0.373,96.000
'0:03.570',0.235,-0.064,-0.373,0.375,96.000
'0:03.580',0.250,-0.064,-0.374,0.377,96.000
'0:03.590',0.295,-0.064,-0.375,0.379,96.000
'0:03.600',0.300,-0.064,-0.376,0.381,96.000
'0:03.610',0.300,-0.065,-0.377,0.383,96.000
'0:03.620',0.280,-0.065,-0.378,0.384,96.000
'0:03.630',0.210,-0.066,-0.379,0.386,96.000
'0:03.640',0.140,-0.067,-0.380,0.388,96.000
'0:03.650',0.070,-0.067,-0.381,0.390,96.000
'0:03.660',0.015,-0.068,-0.380,0.391,96.000
'0:03.670',-0.015,-0.068,-0.379,0.393,96.000
'0:03.680',-0.025,-0.069,-0.377,0.395,96.000
'0:03.690',-0.050,-0.069,-0.376,0.397,96.000
'0:03.700',-0.055,-0.070,-0.375,0.398,96.000
'0:03.710',-0.050,-0.069,-0.373,0.400,96.000
'0:03.720',-0.035,-0.069,-0.370,0.401,96.000
'0:03.730',-0.040,-0.068,-0.368,0.402,96.000
'0:03.740',-0.045,-0.068,-0.365,0.403,96.000
'0:03.750',-0.035,-0.067,-0.362,0.404,96.000
'0:03.760',-0.035,-0.068,-0.360,0.404,96.000
'0:03.770',-0.025,-0.069,-0.358,0.405,96.000
'0:03.780',-0.035,-0.070,-0.355,0.405,96.000
'0:03.790',-0.045,-0.071,-0.353,0.405,96.000
'0:03.800',-0.025,-0.072,-0.351,0.405,96.000
'0:03.810',-0.035,-0.072,-0.349,0.403,96.000
'0:03.820',-0.050,-0.072,-0.347,0.401,96.000
'0:03.830',-0.055,-0.072,-0.345,0.399,96.000
'0:03.840',-0.050,-0.073,-0.343,0.397,96.000
'0:03.850',-0.060,-0.073,-0.341,0.394,96.000
'0:03.860',-0.055,-0.072,-0.339,0.389,96.000
'0:03.870',-0.005,-0.072,-0.336,0.383,96.000
'0:03.880',0.045,-0.071,-0.334,0.377,96.000
'0:03.890',0.050,-0.070,-0.331,0.372,96.000
'0:03.900',0.055,-0.070,-0.329,0.366,96.000
'0:03.910',0.105,-0.070,-0.324,0.357,96.000
'0:03.920',0.085,-0.070,-0.320,0.349,96.000
'0:03.930',0.060,-0.070,-0.315,0.340,96.000
'0:03.940',0.005,-0.070,-0.311,0.332,96.000
'0:03.950',-0.020,-0.070,-0.306,0.323,96.000
'0:03.960',-0.100,-0.070,-0.301,0.313,95.000
'0:03.970',-0.115,-0.069,-0.297,0.302,95.000
'0:03.980',-0.115,-0.069,-0.292,0.292,95.000
'0:03.990',-0.115,-0.069,-0.288,0.281,95.000
'0:04.000',-0.120,-0.068,-0.283,0.271,95.000
'0:04.010',-0.120,-0.068,-0.281,0.259,95.000
'0:04.020',-0.120,-0.067,-0.279,0.248,95.000
'0:04.030',-0.125,-0.067,-0.278,0.236,95.000
'0:04.040',-0.070,-0.066,-0.276,0.225,95.000
'0:04.050',0.075,-0.066,-0.274,0.213,95.000
'0:04.060',0.335,-0.065,-0.270,0.202,95.000
'0:04.070',-0.015,-0.064,-0.265,0.190,95.000
'0:04.080',-0.405,-0.064,-0.261,0.179,95.000
'0:04.090',-0.275,-0.063,-0.256,0.167,95.000
'0:04.100',-0.170,-0.063,-0.252,0.156,95.000
'0:04.110',-0.100,-0.062,-0.248,0.145,95.000
'0:04.120',-0.105,-0.062,-0.244,0.134,95.000
'0:04.130',-0.105,-0.062,-0.241,0.123,95.000
'0:04.140',-0.090,-0.061,-0.237,0.112,95.000
'0:04.150',-0.110,-0.061,-0.234,0.102,95.000
'0:04.160',-0.110,-0.061,-0.229,0.091,95.000
'0:04.170',-0.080,-0.062,-0.224,0.081,95.000
'0:04.180',-0.080,-0.062,-0.218,0.071,95.000
'0:04.190',-0.075,-0.063,-0.213,0.061,95.000
'0:04.200',-0.075,-0.063,-0.208,0.051,95.000
'0:04.210',-0.045,-0.063,-0.199,0.042,95.000
'0:04.220',-0.025,-0.063,-0.189,0.033,95.000
'0:04.230',-0.010,-0.063,-0.180,0.024,95.000
'0:04.240',0.000,-0.063,-0.170,0.015,95.000
'0:04.250',0.025,-0.063,-0.161,0.006,95.000
'0:04.260',0.065,-0.063,-0.154,-0.003,95.000
'0:04.270',0.080,-0.063,-0.146,-0.011,95.000
'0:04.280',0.105,-0.064,-0.139,-0.019,95.000
'0:04.290',0.165,-0.064,-0.131,-0.027,95.000
'0:04.300',0.200,-0.064,-0.124,-0.035,95.000
'0:04.310',0.235,-0.064,-0.115,-0.043,95.000
'0:04.320',0.265,-0.064,-0.106,-0.050,95.000
'0:04.330',0.275,-0.064,-0.097,-0.058,95.000
'0:04.340',0.310,-0.064,-0.088,-0.065,95.000
'0:04.350',0.315,-0.064,-0.079,-0.073,95.000
'0:04.360',0.270,-0.064,-0.075,-0.080,95.000
'0:04.370',0.220,-0.064,-0.071,-0.087,95.000
'0:04.380',0.125,-0.064,-0.068,-0.094,95.000
'0:04.390',0.080,-0.065,-0.064,-0.101,95.000
'0:04.400',0.005,-0.065,-0.060,-0.108,95.000
'0:04.410',-0.025,-0.065,-0.058,-0.114,95.000
'0:04.420',-0.025,-0.065,-0.055,-0.120,95.000
'0:04.430',-0.050,-0.066,-0.053,-0.127,95.000
'0:04.440',-0.040,-0.066,-0.051,-0.133,95.000
'0:04.450',-0.050,-0.066,-0.049,-0.139,95.000
'0:04.460',-0.050,-0.065,-0.044,-0.144,95.000
'0:04.470',-0.045,-0.063,-0.040,-0.150,95.000
'0:04.480',-0.040,-0.062,-0.036,-0.155,95.000
'0:04.490',-0.020,-0.060,-0.032,-0.161,95.000
'0:04.500',-0.035,-0.059,-0.027,-0.166,95.000
'0:04.510',-0.050,-0.059,-0.024,-0.171,95.000
'0:04.520',-0.040,-0.059,-0.021,-0.176,95.000
'0:04.530',-0.040,-0.059,-0.018,-0.181,95.000
'0:04.540',-0.045,-0.059,-0.015,-0.186,95.000
'0:04.550',-0.055,-0.059,-0.012,-0.191,95.000
'0:04.560',-0.055,-0.060,-0.005,-0.196,95.000
'0:04.570',-0.060,-0.060,0.002,-0.200,95.000
'0:04.580',-0.070,-0.061,0.009,-0.205,95.000
'0:04.590',-0.065,-0.062,0.016,-0.210,95.000
'0:04.600',-0.065,-0.062,0.023,-0.214,95.000
'0:04.610',0.000,-0.063,0.034,-0.219,95.000
'0:04.620',0.040,-0.063,0.044,-0.223,95.000
'0:04.630',0.040,-0.064,0.054,-0.227,95.000
'0:04.640',0.050,-0.064,0.064,-0.232,95.000
'0:04.650',0.115,-0.064,0.074,-0.236,95.000
'0:04.660',0.075,-0.065,0.082,-0.240,95.000
'0:04.670',0.055,-0.065,0.090,-0.245,95.000
'0:04.680',-0.020,-0.065,0.099,-0.249,95.000
'0:04.690',-0.015,-0.065,0.107,-0.253,95.000
'0:04.700',-0.100,-0.065,0.115,-0.258,95.000
'0:04.710',-0.115,-0.064,0.120,-0.262,95.000
'0:04.720',-0.125,-0.064,0.125,-0.266,95.000
'0:04.730',-0.105,-0.063,0.130,-0.271,95.000
'0:04.740',-0.120,-0.063,0.134,-0.275,95.000
'0:04.750',-0.115,-0.062,0.139,-0.280,95.000
'0:04.760',-0.130,-0.062,0.146,-0.284,95.000
'0:04.770',-0.105,-0.062,0.152,-0.289,95.000
'0:04.780',-0.070,-0.061,0.159,-0.293,95.000
'0:04.790',0.165,-0.061,0.165,-0.298,95.000
'0:04.800',0.505,-0.061,0.172,-0.302,95.000
'0:04.810',-0.165,-0.061,0.182,-0.307,95.000
'0:04.820',-0.380,-0.061,0.193,-0.311,95.000
'0:04.830',-0.245,-0.061,0.203,-0.315,95.000
'0:04.840',-0.150,-0.061,0.214,-0.320,95.000
'0:04.850',-0.110,-0.061,0.224,-0.324,95.000
'0:04.860',-0.105,-0.061,0.234,-0.328,95.000
'0:04.870',-0.105,-0.062,0.245,-0.332,95.000
'0:04.880',-0.115,-0.062,0.255,-0.336,95.000
'0:04.890',-0.075,-0.062,0.265,-0.340,95.000
'0:04.900',-0.100,-0.062,0.276,-0.344,95.000
'0:04.910',-0.090,-0.062,0.285,-0.348,95.000
'0:04.920',-0.095,-0.062,0.293,-0.352,95.000
'0:04.930',-0.055,-0.061,0.302,-0.356,95.000
'0:04.940',-0.040,-0.061,0.311,-0.361,95.000
'0:04.950',-0.050,-0.061,0.320,-0.365,95.000
'0:04.960',-0.050,-0.060,0.329,-0.369,95.000
'0:04.970',-0.010,-0.060,0.338,-0.373,95.000
'0:04.980',0.015,-0.060,0.346,-0.377,95.000
'0:04.990',0.055,-0.060,0.355,-0.381,95.000
'0:05.000',0.045,-0.060,0.364,-0.385,95.000
'0:05.010',0.105,-0.060,0.371,-0.389,95.000
'0:05.020',0.135,-0.059,0.378,-0.393,95.000
'0:05.030',0.165,-0.059,0.385,-0.397,95.000
'0:05.040',0.200,-0.059,0.393,-0.401,95.000
'0:05.050',0.255,-0.058,0.400,-0.405,95.000
'0:05.060',0.295,-0.057,0.405,-0.409,95.000
'0:05.070',0.295,-0.057,0.411,-0.413,95.000
'0:05.080',0.310,-0.056,0.416,-0.417,95.000
'0:05.090',0.310,-0.055,0.422,-0.421,95.000
'0:05.100',0.260,-0.054,0.428,-0.425,95.000
'0:05.110',0.220,-0.054,0.434,-0.429,95.000
'0:05.120',0.135,-0.053,0.440,-0.433,95.000
'0:05.130',0.055,-0.053,0.445,-0.436,95.000
'0:05.140',0.035,-0.053,0.451,-0.440,95.000
'0:05.150',-0.010,-0.053,0.457,-0.444,95.000
'0:05.160',-0.005,-0.053,0.464,-0.447,95.000
'0:05.170',-0.035,-0.053,0.470,-0.451,95.000
'0:05.180',-0.035,-0.053,0.477,-0.454,95.000
'0:05.190',-0.060,-0.053,0.483,-0.458,95.000
'0:05.200',-0.025,-0.054,0.489,-0.461,95.000
'0:05.210',-0.025,-0.053,0.496,-0.464,95.000
'0:05.220',-0.045,-0.052,0.502,-0.467,95.000
'0:05.230',-0.025,-0.052,0.509,-0.471,95.000
'0:05.240',-0.040,-0.051,0.515,-0.474,95.000
'0:05.250',-0.025,-0.050,0.522,-0.477,95.000
'0:05.260',-0.040,-0.050,0.527,-0.480,95.000
'0:05.270',-0.050,-0.050,0.531,-0.483,95.000
'0:05.280',-0.040,-0.049,0.536,-0.486,95.000
'0:05.290',-0.070,-0.049,0.541,-0.489,95.000
'0:05.300',-0.065,-0.048,0.546,-0.492,95.000
'0:05.310',-0.070,-0.048,0.548,-0.495,95.000
'0:05.320',-0.065,-0.049,0.549,-0.498,95.000
'0:05.330',-0.070,-0.049,0.551,-0.501,95.000
'0:05.340',-0.065,-0.049,0.552,-0.503,95.000
'0:05.350',-0.035,-0.049,0.554,-0.506,95.000
'0:05.360',0.040,-0.049,0.550,-0.508,95.000
'0:05.370',0.035,-0.050,0.546,-0.511,95.000
'0:05.380',0.075,-0.051,0.543,-0.513,95.000
'0:05.390',0.060,-0.051,0.539,-0.515,95.000
'0:05.400',0.115,-0.052,0.535,-0.517,95.000
'0:05.410',0.090,-0.052,0.529,-0.518,95.000
'0:05.420',0.015,-0.052,0.522,-0.519,95.000
'0:05.430',-0.010,-0.053,0.515,-0.519,95.000
'0:05.440',-0.060,-0.053,0.509,-0.520,95.000
'0:05.450',-0.125,-0.053,0.502,-0.521,95.000
'0:05.460',-0.100,-0.053,0.494,-0.518,95.000
'0:05.470',-0.120,-0.053,0.486,-0.516,95.000
'0:05.480',-0.115,-0.053,0.478,-0.513,95.000
'0:05.490',-0.125,-0.053,0.470,-0.510,95.000
'0:05.500',-0.095,-0.053,0.462,-0.508,95.000
'0:05.510',-0.130,-0.053,0.452,-0.500,95.000
'0:05.520',-0.065,-0.054,0.442,-0.493,95.000
'0:05.530',0.010,-0.055,0.433,-0.485,95.000
'0:05.540',0.350,-0.055,0.423,-0.478,95.000
'0:05.550',0.470,-0.056,0.413,-0.471,95.000
'0:05.560',-0.390,-0.055,0.400,-0.460,95.000
'0:05.570',-0.290,-0.054,0.387,-0.450,95.000
'0:05.580',-0.145,-0.053,0.374,-0.440,95.000
'0:05.590',-0.065,-0.052,0.361,-0.430,95.000
'0:05.600',-0.090,-0.052,0.348,-0.420,95.000
'0:05.610',-0.120,-0.051,0.336,-0.408,95.000
'0:05.620',-0.090,-0.051,0.325,-0.396,95.000
'0:05.630',-0.125,-0.051,0.313,-0.384,95.000
'0:05.640',-0.090,-0.051,0.301,-0.372,95.000
'0:05.650',-0.110,-0.051,0.289,-0.360,95.000
'0:05.660',-0.070,-0.050,0.280,-0.347,95.000
'0:05.670',-0.085,-0.050,0.270,-0.334,95.000
'0:05.680',-0.050,-0.049,0.260,-0.322,95.000
'0:05.690',-0.065,-0.049,0.250,-0.309,95.000
'0:05.700',-0.025,-0.049,0.240,-0.296,95.000
'0:05.710',-0.050,-0.049,0.228,-0.283,95.000
'0:05.720',-0.005,-0.049,0.216,-0.270,95.000
'0:05.730',0.020,-0.050,0.204,-0.258,95.000
'0:05.740',0.055,-0.050,0.192,-0.245,95.000
'0:05.750',0.065,-0.050,0.180,-0.232,95.000
'0:05.760',0.105,-0.051,0.168,-0.219,95.000
'0:05.770',0.150,-0.052,0.157,-0.207,95.000
'0:05.780',0.190,-0.053,0.145,-0.194,95.000
'0:05.790',0.225,-0.054,0.134,-0.181,95.000
'0:05.800',0.255,-0.055,0.122,-0.168,95.000
'0:05.810',0.275,-0.053,0.110,-0.156,95.000
'0:05.820',0.310,-0.051,0.098,-0.144,95.000
'0:05.830',0.320,-0.048,0.086,-0.132,95.000
'0:05.840',0.300,-0.046,0.074,-0.119,95.000
'0:05.850',0.255,-0.044,0.062,-0.107,95.000
'0:05.860',0.175,-0.043,0.053,-0.096,95.000
'0:05.870',0.105,-0.042,0.043,-0.084,95.000
'0:05.880',0.045,-0.042,0.034,-0.072,95.000
'0:05.890',0.000,-0.041,0.025,-0.061,95.000
'0:05.900',-0.025,-0.041,0.016,-0.050,95.000
'0:05.910',-0.025,-0.041,0.011,-0.038,95.000
'0:05.920',-0.020,-0.042,0.007,-0.028,95.000
'0:05.930',-0.025,-0.043,0.003,-0.017,95.000
'0:05.940',-0.030,-0.043,-0.002,-0.006,95.000
'0:05.950',-0.030,-0.044,-0.006,0.005,95.000
'0:05.960',-0.020,-0.044,-0.009,0.015,95.000
'0:05.970',-0.030,-0.044,-0.012,0.025,95.000
'0:05.980',-0.035,-0.044,-0.015,0.036,95.000
'0:05.990',-0.030,-0.044,-0.018,0.046,95.000
'0:06.000',-0.015,-0.044,-0.021,0.056,95.000
'0:06.010',-0.030,-0.046,-0.024,0.065,95.000
'0:06.020',-0.015,-0.047,-0.027,0.075,95.000
'0:06.030',-0.040,-0.048,-0.030,0.085,95.000
'0:06.040',-0.035,-0.049,-0.034,0.094,95.000
'0:06.050',-0.045,-0.050,-0.037,0.104,95.000
'0:06.060',-0.045,-0.051,-0.040,0.113,95.000
'0:06.070',-0.055,-0.051,-0.043,0.122,95.000
'0:06.080',-0.045,-0.051,-0.046,0.131,95.000
'0:06.090',-0.030,-0.051,-0.050,0.140,95.000
'0:06.100',0.045,-0.052,-0.053,0.149,95.000
'0:06.110',0.050,-0.052,-0.055,0.158,95.000
'0:06.120',0.080,-0.051,-0.057,0.166,95.000
'0:06.130',0.075,-0.051,-0.059,0.175,95.000
'0:06.140',0.115,-0.051,-0.061,0.183,95.000
'0:06.150',0.090,-0.051,-0.064,0.192,95.000
'0:06.160',0.020,-0.052,-0.068,0.200,95.000
'0:06.170',0.000,-0.052,-0.073,0.208,95.000
'0:06.180',-0.040,-0.053,-0.077,0.216,95.000
'0:06.190',-0.095,-0.054,-0.081,0.224,95.000
'0:06.200',-0.085,-0.054,-0.086,0.231,95.000
'0:06.210',-0.115,-0.054,-0.093,0.239,95.000
'0:06.220',-0.090,-0.055,-0.101,0.246,95.000
'0:06.230',-0.115,-0.055,-0.109,0.253,95.000
'0:06.240',-0.100,-0.055,-0.116,0.260,95.000
'0:06.250',-0.115,-0.055,-0.124,0.267,95.000
'0:06.260',-0.055,-0.054,-0.134,0.274,95.000
'0:06.270',0.000,-0.053,-0.144,0.281,95.000
'0:06.280',0.260,-0.051,-0.154,0.287,95.000
'0:06.290',0.350,-0.050,-0.164,0.294,95.000
'0:06.300',-0.445,-0.049,-0.174,0.300,95.000
'0:06.310',-0.350,-0.049,-0.182,0.306,95.000
'0:06.320',-0.150,-0.049,-0.191,0.312,95.000
'0:06.330',-0.060,-0.049,-0.199,0.318,95.000
'0:06.340',-0.080,-0.050,-0.208,0.324,95.000
'0:06.350',-0.095,-0.050,-0.217,0.329,95.000
'0:06.360',-0.090,-0.051,-0.223,0.334,95.000
'0:06.370',-0.110,-0.052,-0.230,0.339,95.000
'0:06.380',-0.075,-0.053,-0.236,0.344,95.000
'0:06.390',-0.095,-0.053,-0.242,0.349,95.000
'0:06.400',-0.060,-0.054,-0.249,0.354,95.000
'0:06.410',-0.070,-0.053,-0.254,0.358,95.000
'0:06.420',-0.060,-0.052,-0.259,0.362,95.000
'0:06.430',-0.045,-0.052,-0.264,0.366,95.000
'0:06.440',-0.025,-0.051,-0.269,0.370,95.000
'0:06.450',-0.010,-0.050,-0.274,0.374,95.000
'0:06.460',0.010,-0.051,-0.279,0.377,95.000
'0:06.470',0.020,-0.051,-0.283,0.381,95.000
'0:06.480',0.065,-0.052,-0.287,0.384,95.000
'0:06.490',0.085,-0.053,-0.291,0.387,95.000
'0:06.500',0.130,-0.053,-0.296,0.391,95.000
'0:06.510',0.160,-0.054,-0.302,0.394,95.000
'0:06.520',0.205,-0.055,-0.307,0.396,95.000
'0:06.530',0.225,-0.056,-0.313,0.399,95.000
'0:06.540',0.260,-0.057,-0.319,0.402,95.000
'0:06.550',0.285,-0.058,-0.325,0.405,95.000
'0:06.560',0.295,-0.058,-0.328,0.407,95.000
'0:06.570',0.310,-0.058,-0.331,0.410,95.000
'0:06.580',0.295,-0.058,-0.334,0.412,95.000
'0:06.590',0.240,-0.058,-0.337,0.415,95.000
'0:06.600',0.180,-0.058,-0.340,0.417,95.000
'0:06.610',0.100,-0.058,-0.341,0.419,95.000
'0:06.620',0.045,-0.058,-0.343,0.421,95.000
'0:06.630',-0.005,-0.058,-0.344,0.423,95.000
'0:06.640',-0.030,-0.058,-0.346,0.426,95.000
'0:06.650',-0.045,-0.059,-0.347,0.428,95.000
'0:06.660',-0.045,-0.058,-0.349,0.430,95.000
'0:06.670',-0.040,-0.057,-0.350,0.431,95.000
'0:06.680',-0.035,-0.056,-0.351,0.433,95.000
'0:06.690',-0.035,-0.056,-0.353,0.435,95.000
'0:06.700',-0.030,-0.055,-0.354,0.437,95.000
'0:06.710',-0.040,-0.055,-0.354,0.439,95.000
'0:06.720',-0.020,-0.055,-0.353,0.441,95.000
'0:06.730',-0.030,-0.056,-0.353,0.442,95.000
'0:06.740',-0.045,-0.056,-0.353,0.444,95.000
'0:06.750',-0.040,-0.056,-0.353,0.446,95.000
'0:06.760',-0.035,-0.056,-0.354,0.447,95.000
'0:06.770',-0.040,-0.057,-0.354,0.449,95.000
'0:06.780',-0.060,-0.057,-0.355,0.450,95.000
'0:06.790',-0.060,-0.058,-0.355,0.452,95.000
'0:06.800',-0.050,-0.058,-0.356,0.453,95.000
'0:06.810',-0.060,-0.058,-0.357,0.454,95.000
'0:06.820',-0.065,-0.058,-0.357,0.455,95.000
'0:06.830',-0.055,-0.058,-0.358,0.456,95.000
'0:06.840',0.000,-0.058,-0.359,0.458,95.000
'0:06.850',0.045,-0.058,-0.360,0.459,95.000
'0:06.860',0.045,-0.059,-0.359,0.460,95.000
'0:06.870',0.045,-0.060,-0.359,0.460,95.000
'0:06.880',0.110,-0.061,-0.359,0.461,95.000
'0:06.890',0.090,-0.062,-0.358,0.462,95.000
'0:06.900',0.060,-0.063,-0.358,0.463,95.000
'0:06.910',-0.010,-0.063,-0.357,0.464,95.000
'0:06.920',-0.020,-0.063,-0.356,0.464,95.000
'0:06.930',-0.100,-0.063,-0.355,0.465,95.000
'0:06.940',-0.120,-0.063,-0.354,0.465,95.000
'0:06.950',-0.115,-0.063,-0.353,0.466,95.000
'0:06.960',-0.110,-0.063,-0.352,0.466,95.000
'0:06.970',-0.125,-0.063,-0.351,0.466,95.000
'0:06.980',-0.110,-0.063,-0.349,0.467,95.000
'0:06.990',-0.120,-0.063,-0.348,0.467,95.000
'0:07.000',-0.080,-0.063,-0.347,0.467,95.000
'0:07.010',-0.075,-0.063,-0.345,0.466,95.000
'0:07.020',0.140,-0.064,-0.342,0.466,95.000
'0:07.030',0.415,-0.064,-0.340,0.465,95.000
'0:07.040',-0.275,-0.064,-0.338,0.464,95.000
'0:07.050',-0.410,-0.065,-0.335,0.463,95.000
'0:07.060',-0.225,-0.064,-0.331,0.459,95.000
'0:07.070',-0.135,-0.063,-0.328,0.455,95.000
'0:07.080',-0.100,-0.062,-0.324,0.450,95.000
'0:07.090',-0.115,-0.061,-0.320,0.446,95.000
'0:07.100',-0.110,-0.061,-0.316,0.442,95.000
'0:07.110',-0.100,-0.061,-0.311,0.434,95.000
'0:07.120',-0.090,-0.061,-0.306,0.425,95.000
'0:07.130',-0.095,-0.061,-0.301,0.417,95.000
'0:07.140',-0.080,-0.062,-0.296,0.408,95.000
'0:07.150',-0.095,-0.062,-0.291,0.400,95.000
'0:07.160',-0.065,-0.062,-0.288,0.388,95.000
'0:07.170',-0.045,-0.062,-0.285,0.376,95.000
'0:07.180',-0.040,-0.061,-0.282,0.365,95.000
'0:07.190',-0.035,-0.061,-0.280,0.353,95.000
'0:07.200',0.000,-0.061,-0.277,0.341,95.000
'0:07.210',0.005,-0.061,-0.272,0.328,95.000
'0:07.220',0.035,-0.061,-0.268,0.314,95.000
'0:07.230',0.070,-0.061,-0.263,0.301,95.000
'0:07.240',0.120,-0.061,-0.259,0.287,95.000
'0:07.250',0.140,-0.060,-0.254,0.274,95.000
'0:07.260',0.160,-0.061,-0.247,0.260,95.000
'0:07.270',0.210,-0.061,-0.239,0.246,95.000
'0:07.280',0.235,-0.062,-0.232,0.232,95.000
'0:07.290',0.260,-0.063,-0.224,0.218,95.000
'0:07.300',0.305,-0.063,-0.217,0.204,95.000
'0:07.310',0.315,-0.063,-0.209,0.191,95.000
'0:07.320',0.310,-0.063,-0.202,0.178,95.000
'0:07.330',0.280,-0.063,-0.194,0.164,95.000
'0:07.340',0.210,-0.063,-0.186,0.151,95.000
'0:07.350',0.115,-0.062,-0.179,0.138,95.000
'0:07.360',0.075,-0.062,-0.168,0.126,95.000
'0:07.370',0.010,-0.062,-0.156,0.114,95.000
'0:07.380',-0.025,-0.061,-0.145,0.102,95.000
'0:07.390',-0.040,-0.061,-0.134,0.089,95.000
'0:07.400',-0.045,-0.061,-0.123,0.077,95.000
'0:07.410',-0.055,-0.060,-0.114,0.066,95.000
'0:07.420',-0.030,-0.059,-0.106,0.054,95.000
'0:07.430',-0.045,-0.058,-0.098,0.043,95.000
'0:07.440',-0.040,-0.057,-0.090,0.032,95.000
'0:07.450',-0.030,-0.056,-0.082,0.020,95.000
'0:07.460',-0.030,-0.056,-0.079,0.009,95.000
'0:07.470',-0.030,-0.057,-0.076,-0.002,95.000
'0:07.480',-0.040,-0.057,-0.073,-0.013,95.000
'0:07.490',-0.035,-0.057,-0.070,-0.024,95.000
'0:07.500',-0.015,-0.057,-0.068,-0.035,95.000
'0:07.510',-0.040,-0.057,-0.065,-0.046,95.000
'0:07.520',-0.040,-0.057,-0.063,-0.057,95.000
'0:07.530',-0.040,-0.056,-0.060,-0.068,95.000
'0:07.540',-0.045,-0.056,-0.058,-0.078,95.000
'0:07.550',-0.065,-0.056,-0.056,-0.089,95.000
'0:07.560',-0.050,-0.055,-0.052,-0.100,95.000
'0:07.570',-0.045,-0.054,-0.049,-0.111,95.000
'0:07.580',-0.010,-0.053,-0.045,-0.122,95.000
'0:07.590',0.045,-0.052,-0.042,-0.132,95.000
'0:07.600',0.060,-0.051,-0.039,-0.143,95.000
'0:07.610',0.065,-0.051,-0.036,-0.154,95.000
'0:07.620',0.115,-0.051,-0.034,-0.164,95.000
'0:07.630',0.100,-0.051,-0.031,-0.175,95.000
'0:07.640',0.060,-0.051,-0.029,-0.185,95.000
'0:07.650',0.005,-0.051,-0.026,-0.196,95.000
'0:07.660',-0.025,-0.050,-0.023,-0.207,95.000
'0:07.670',-0.080,-0.050,-0.020,-0.217,95.000
'0:07.680',-0.115,-0.049,-0.018,-0.227,95.000
'0:07.690',-0.105,-0.048,-0.015,-0.238,95.000
'0:07.700',-0.095,-0.047,-0.012,-0.248,95.000
'0:07.710',-0.145,-0.047,-0.007,-0.259,95.000
'0:07.720',-0.115,-0.047,-0.002,-0.269,95.000
'0:07.730',-0.110,-0.046,0.002,-0.280,95.000
'0:07.740',-0.100,-0.046,0.007,-0.290,95.000
'0:07.750',-0.065,-0.046,0.012,-0.300,95.000
'0:07.760',0.155,-0.046,0.019,-0.309,95.000
'0:07.770',0.500,-0.046,0.027,-0.319,95.000
'0:07.780',-0.155,-0.046,0.034,-0.328,95.000
'0:07.790',-0.360,-0.046,0.042,-0.337,95.000
'0:07.800',-0.270,-0.046,0.049,-0.346,95.000
'0:07.810',-0.165,-0.045,0.059,-0.355,95.000
'0:07.820',-0.095,-0.045,0.070,-0.363,95.000
'0:07.830',-0.095,-0.045,0.080,-0.372,95.000
'0:07.840',-0.105,-0.044,0.090,-0.380,95.000
'0:07.850',-0.110,-0.044,0.100,-0.389,95.000
'0:07.860',-0.090,-0.044,0.110,-0.396,95.000
'0:07.870',-0.120,-0.044,0.120,-0.404,95.000
'0:07.880',-0.080,-0.044,0.130,-0.412,95.000
'0:07.890',-0.080,-0.044,0.140,-0.420,95.000
'0:07.900',-0.050,-0.044,0.150,-0.428,95.000
'0:07.910',-0.075,-0.044,0.161,-0.435,95.000
'0:07.920',-0.040,-0.043,0.172,-0.443,95.000
'0:07.930',-0.045,-0.042,0.183,-0.450,95.000
'0:07.940',0.000,-0.042,0.194,-0.458,95.000
'0:07.950',-0.010,-0.041,0.204,-0.465,95.000
'0:07.960',0.020,-0.041,0.214,-0.472,95.000
'0:07.970',0.065,-0.040,0.223,-0.480,95.000
'0:07.980',0.110,-0.040,0.232,-0.487,95.000
'0:07.990',0.135,-0.039,0.241,-0.495,95.000
'0:08.000',0.160,-0.039,0.250,-0.502,95.000
'0:08.010',0.210,-0.039,0.258,-0.509,95.000
'0:08.020',0.245,-0.039,0.265,-0.516,95.000
'0:08.030',0.285,-0.039,0.272,-0.523,95.000
'0:08.040',0.310,-0.040,0.280,-0.530,95.000
'0:08.050',0.290,-0.040,0.287,-0.537,95.000
'0:08.060',0.310,-0.039,0.293,-0.544,95.000
'0:08.070',0.275,-0.039,0.299,-0.551,95.000
'0:08.080',0.195,-0.039,0.305,-0.557,95.000
'0:08.090',0.120,-0.038,0.311,-0.564,95.000
'0:08.100',0.055,-0.038,0.317,-0.571,95.000
'0:08.110',0.010,-0.037,0.320,-0.577,95.000
'0:08.120',-0.020,-0.036,0.323,-0.583,95.000
'0:08.130',-0.035,-0.034,0.326,-0.589,95.000
'0:08.140',-0.065,-0.033,0.329,-0.595,95.000
'0:08.150',-0.060,-0.032,0.332,-0.601,95.000
'0:08.160',-0.055,-0.031,0.332,-0.606,95.000
'0:08.170',-0.045,-0.030,0.333,-0.612,95.000
'0:08.180',-0.050,-0.029,0.333,-0.617,95.000
'0:08.190',-0.060,-0.028,0.333,-0.622,95.000
'0:08.200',-0.025,-0.027,0.333,-0.627,95.000
'0:08.210',-0.020,-0.027,0.330,-0.631,95.000
'0:08.220',-0.045,-0.027,0.327,-0.635,95.000
'0:08.230',-0.025,-0.027,0.324,-0.639,95.000
'0:08.240',-0.035,-0.027,0.321,-0.643,95.000
'0:08.250',-0.070,-0.027,0.319,-0.647,95.000
'0:08.260',-0.035,-0.027,0.314,-0.649,95.000
'0:08.270',-0.075,-0.026,0.309,-0.651,95.000
'0:08.280',-0.050,-0.026,0.304,-0.653,95.000
'0:08.290',-0.070,-0.026,0.299,-0.655,95.000
'0:08.300',-0.055,-0.026,0.294,-0.657,95.000
'0:08.310',-0.070,-0.025,0.289,-0.654,95.000
'0:08.320',-0.065,-0.025,0.284,-0.652,95.000
'0:08.330',-0.055,-0.025,0.279,-0.649,95.000
'0:08.340',0.015,-0.025,0.274,-0.646,95.000
'0:08.350',0.025,-0.025,0.270,-0.644,95.000
'0:08.360',0.045,-0.025,0.263,-0.636,95.000
'0:08.370',0.060,-0.025,0.257,-0.629,95.000
'0:08.380',0.110,-0.026,0.251,-0.621,95.000
'0:08.390',0.070,-0.026,0.245,-0.614,95.000
'0:08.400',0.010,-0.026,0.239,-0.606,95.000
'0:08.410',-0.020,-0.026,0.231,-0.595,95.000
'0:08.420',-0.040,-0.026,0.223,-0.584,95.000
'0:08.430',-0.105,-0.026,0.215,-0.574,95.000
'0:08.440',-0.115,-0.026,0.207,-0.563,95.000
'0:08.450',-0.135,-0.025,0.200,-0.552,95.000
'0:08.460',-0.115,-0.026,0.192,-0.539,95.000
'0:08.470',-0.145,-0.027,0.185,-0.527,95.000
'0:08.480',-0.105,-0.028,0.178,-0.514,95.000
'0:08.490',-0.125,-0.029,0.171,-0.501,95.000
'0:08.500',-0.065,-0.030,0.164,-0.489,95.000
'0:08.510',0.000,-0.030,0.155,-0.475,95.000
'0:08.520',0.310,-0.031,0.147,-0.462,95.000
'0:08.530',0.440,-0.032,0.139,-0.448,95.000
'0:08.540',-0.400,-0.033,0.131,-0.434,95.000
'0:08.550',-0.340,-0.033,0.123,-0.421,95.000
'0:08.560',-0.170,-0.033,0.113,-0.407,95.000
'0:08.570',-0.075,-0.032,0.104,-0.393,95.000
'0:08.580',-0.100,-0.032,0.094,-0.379,95.000
'0:08.590',-0.130,-0.031,0.085,-0.365,95.000
'0:08.600',-0.105,-0.031,0.075,-0.351,95.000
'0:08.610',-0.100,-0.030,0.068,-0.337,95.000
'0:08.620',-0.100,-0.029,0.061,-0.322,95.000
'0:08.630',-0.105,-0.029,0.054,-0.308,95.000
'0:08.640',-0.075,-0.028,0.047,-0.293,95.000
'0:08.650',-0.065,-0.027,0.040,-0.279,95.000
'0:08.660',-0.040,-0.028,0.035,-0.264,95.000
'0:08.670',-0.065,-0.029,0.029,-0.250,95.000
'0:08.680',-0.045,-0.030,0.023,-0.235,95.000
'0:08.690',-0.010,-0.031,0.018,-0.220,95.000
'0:08.700',0.005,-0.032,0.012,-0.205,95.000
'0:08.710',0.000,-0.033,0.008,-0.191,95.000
'0:08.720',0.050,-0.034,0.004,-0.176,95.000
'0:08.730',0.065,-0.035,-0.000,-0.162,95.000
'0:08.740',0.120,-0.036,-0.005,-0.147,95.000
'0:08.750',0.155,-0.037,-0.009,-0.133,95.000
'0:08.760',0.190,-0.037,-0.011,-0.119,95.000
'0:08.770',0.200,-0.037,-0.014,-0.105,95.000
'0:08.780',0.255,-0.036,-0.016,-0.091,95.000
'0:08.790',0.280,-0.036,-0.018,-0.077,95.000
'0:08.800',0.300,-0.036,-0.021,-0.063,95.000
'0:08.810',0.300,-0.037,-0.023,-0.049,95.000
'0:08.820',0.285,-0.038,-0.026,-0.036,95.000
'0:08.830',0.245,-0.040,-0.029,-0.022,95.000
'0:08.840',0.190,-0.041,-0.032,-0.009,95.000
'0:08.850',0.090,-0.042,-0.034,0.004,95.000
'0:08.860',0.040,-0.042,-0.037,0.017,95.000
'0:08.870',-0.005,-0.042,-0.039,0.029,95.000
'0:08.880',-0.020,-0.043,-0.041,0.042,95.000
'0:08.890',-0.030,-0.043,-0.043,0.054,95.000
'0:08.900',-0.045,-0.043,-0.046,0.066,95.000
'0:08.910',-0.050,-0.043,-0.047,0.078,95.000
'0:08.920',-0.055,-0.043,-0.049,0.090,95.000
'0:08.930',-0.045,-0.043,-0.051,0.101,95.000
'0:08.940',-0.040,-0.042,-0.053,0.113,95.000
'0:08.950',-0.030,-0.042,-0.055,0.125,95.000
'0:08.960',-0.040,-0.042,-0.060,0.135,95.000
'0:08.970',-0.030,-0.043,-0.065,0.146,95.000
'0:08.980',-0.035,-0.043,-0.070,0.157,95.000
'0:08.990',-0.035,-0.043,-0.076,0.168,95.000
'0:09.000',-0.040,-0.044,-0.081,0.179,95.000
'0:09.010',-0.045,-0.043,-0.094,0.189,95.000
'0:09.020',-0.060,-0.043,-0.107,0.199,95.000
'0:09.030',-0.045,-0.043,-0.119,0.209,95.000
'0:09.040',-0.060,-0.043,-0.132,0.220,95.000
'0:09.050',-0.060,-0.042,-0.145,0.230,95.000
'0:09.060',-0.070,-0.043,-0.158,0.239,95.000
'0:09.070',-0.055,-0.044,-0.170,0.248,95.000
'0:09.080',-0.070,-0.044,-0.183,0.257,95.000
'0:09.090',-0.010,-0.045,-0.196,0.266,95.000
'0:09.100',0.025,-0.046,-0.208,0.275,95.000
'0:09.110',0.055,-0.046,-0.217,0.283,95.000
'0:09.120',0.060,-0.045,-0.226,0.291,95.000
'0:09.130',0.130,-0.045,-0.234,0.299,95.000
'0:09.140',0.080,-0.045,-0.243,0.307,95.000
'0:09.150',0.035,-0.045,-0.252,0.315,95.000
'0:09.160',-0.015,-0.044,-0.260,0.323,95.000
'0:09.170',-0.030,-0.044,-0.269,0.330,95.000
'0:09.180',-0.105,-0.043,-0.277,0.337,95.000
'0:09.190',-0.110,-0.043,-0.286,0.344,95.000
'0:09.200',-0.140,-0.043,-0.294,0.352,95.000
'0:09.210',-0.110,-0.043,-0.300,0.358,95.000
'0:09.220',-0.120,-0.044,-0.306,0.364,95.000
'0:09.230',-0.100,-0.044,-0.312,0.370,95.000
'0:09.240',-0.130,-0.045,-0.317,0.377,95.000
'0:09.250',-0.105,-0.045,-0.323,0.383,95.000
'0:09.260',-0.100,-0.046,-0.327,0.388,95.000
'0:09.270',0.165,-0.048,-0.330,0.394,95.000
'0:09.280',0.460,-0.049,-0.333,0.400,95.000
'0:09.290',-0.420,-0.050,-0.337,0.405,95.000
'0:09.300',-0.445,-0.051,-0.340,0.411,95.000
'0:09.310',-0.230,-0.051,-0.342,0.416,95.000
'0:09.320',-0.095,-0.051,-0.344,0.420,95.000
'0:09.330',-0.095,-0.050,-0.346,0.425,95.000
'0:09.340',-0.120,-0.050,-0.348,0.430,95.000
'0:09.350',-0.115,-0.050,-0.350,0.434,95.000
'0:09.360',-0.125,-0.050,-0.350,0.438,95.000
'0:09.370',-0.100,-0.049,-0.351,0.442,95.000
'0:09.380',-0.110,-0.049,-0.351,0.445,95.000
'0:09.390',-0.095,-0.048,-0.351,0.449,95.000
'0:09.400',-0.095,-0.048,-0.352,0.453,95.000
'0:09.410',-0.070,-0.049,-0.352,0.456,95.000
'0:09.420',-0.085,-0.050,-0.352,0.459,95.000
'0:09.430',-0.060,-0.051,-0.353,0.462,95.000
'0:09.440',-0.055,-0.053,-0.353,0.465,95.000
'0:09.450',-0.015,-0.054,-0.353,0.467,95.000
'0:09.460',0.000,-0.055,-0.354,0.469,95.000
'0:09.470',0.030,-0.056,-0.355,0.471,95.000
'0:09.480',0.050,-0.058,-0.356,0.473,95.000
'0:09.490',0.095,-0.059,-0.357,0.476,95.000
'0:09.500',0.125,-0.060,-0.358,0.478,95.000
'0:09.510',0.175,-0.061,-0.360,0.479,95.000
'0:09.520',0.195,-0.061,-0.361,0.481,95.000
'0:09.530',0.230,-0.061,-0.363,0.482,95.000
'0:09.540',0.250,-0.062,-0.364,0.484,95.000
'0:09.550',0.290,-0.062,-0.366,0.485,95.000
'0:09.560',0.295,-0.062,-0.368,0.487,95.000
'0:09.570',0.300,-0.062,-0.370,0.488,95.000
'0:09.580',0.260,-0.062,-0.372,0.489,95.000
'0:09.590',0.195,-0.062,-0.374,0.491,95.000
'0:09.600',0.115,-0.062,-0.376,0.492,95.000
'0:09.610',0.055,-0.062,-0.377,0.493,95.000
'0:09.620',0.000,-0.062,-0.378,0.494,95.000
'0:09.630',-0.025,-0.061,-0.379,0.495,95.000
'0:09.640',-0.040,-0.061,-0.381,0.496,95.000
'0:09.650',-0.050,-0.061,-0.382,0.497,95.000
'0:09.660',-0.055,-0.062,-0.381,0.498,95.000
'0:09.670',-0.050,-0.063,-0.380,0.498,95.000
'0:09.680',-0.065,-0.063,-0.378,0.499,95.000
'0:09.690',-0.050,-0.064,-0.377,0.500,95.000
'0:09.700',-0.035,-0.065,-0.376,0.501,95.000
'0:09.710',-0.040,-0.066,-0.375,0.501,95.000
'0:09.720',-0.025,-0.067,-0.375,0.502,95.000
'0:09.730',-0.045,-0.069,-0.375,0.502,95.000
'0:09.740',-0.040,-0.070,-0.374,0.503,95.000
'0:09.750',-0.045,-0.071,-0.374,0.503,95.000
'0:09.760',-0.020,-0.071,-0.375,0.503,95.000
'0:09.770',-0.035,-0.070,-0.375,0.503,95.000
'0:09.780',-0.035,-0.070,-0.376,0.504,95.000
'0:09.790',-0.045,-0.069,-0.377,0.504,95.000
'0:09.800',-0.045,-0.068,-0.378,0.504,95.000
'0:09.810',-0.065,-0.068,-0.377,0.504,95.000
'0:09.820',-0.055,-0.067,-0.376,0.504,95.000
'0:09.830',-0.050,-0.067,-0.375,0.504,95.000
'0:09.840',0.015,-0.066,-0.374,0.503,95.000
'0:09.850',0.050,-0.066,-0.373,0.503,95.000
'0:09.860',0.075,-0.066,-0.371,0.502,95.000
'0:09.870',0.065,-0.067,-0.369,0.501,95.000
'0:09.880',0.120,-0.067,-0.366,0.500,95.000
'0:09.890',0.095,-0.068,-0.364,0.498,95.000
'0:09.900',0.040,-0.068,-0.361,0.497,95.000
'0:09.910',-0.015,-0.068,-0.359,0.493,95.000
'0:09.920',-0.005,-0.069,-0.356,0.489,95.000
'0:09.930',-0.090,-0.069,-0.354,0.485,95.000
'0:09.940',-0.100,-0.069,-0.352,0.481,95.000
'0:09.950',-0.130,-0.069,-0.349,0.477,95.000
'0:09.960',-0.095,-0.068,-0.345,0.469,95.000
'0:09.970',-0.115,-0.067,-0.341,0.461,95.000
'0:09.980',-0.100,-0.066,-0.337,0.453,95.000
'0:09.990',-0.120,-0.065,-0.334,0.445,95.000
'0:10.000',-0.080,-0.064,-0.330,0.436,95.000
'0:10.010',-0.080,-0.064,-0.324,0.425,95.000
'0:10.020',0.180,-0.065,-0.319,0.414,95.000
'0:10.030',0.490,-0.065,-0.314,0.402,95.000
'0:10.040',-0.355,-0.065,-0.308,0.391,95.000
'0:10.050',-0.395,-0.065,-0.303,0.379,95.000
'0:10.060',-0.220,-0.066,-0.299,0.366,95.000
'0:10.070',-0.135,-0.066,-0.295,0.352,95.000
'0:10.080',-0.080,-0.066,-0.291,0.339,95.000
'0:10.090',-0.105,-0.066,-0.287,0.326,95.000
'0:10.100',-0.090,-0.066,-0.283,0.312,95.000
'0:10.110',-0.095,-0.066,-0.277,0.298,95.000
'0:10.120',-0.085,-0.065,-0.271,0.284,95.000
'0:10.130',-0.105,-0.064,-0.265,0.270,95.000
'0:10.140',-0.085,-0.063,-0.259,0.255,95.000
'0:10.150',-0.075,-0.062,-0.253,0.241,95.000
'0:10.160',-0.060,-0.063,-0.244,0.227,95.000
'0:10.170',-0.055,-0.063,-0.235,0.213,95.000
'0:10.180',-0.020,-0.063,-0.226,0.199,95.000
'0:10.190',-0.015,-0.064,-0.217,0.185,95.000
'0:10.200',0.005,-0.064,-0.209,0.171,95.000
'0:10.210',-0.005,-0.062,-0.200,0.158,95.000
'0:10.220',0.040,-0.061,-0.191,0.145,95.000
'0:10.230',0.070,-0.060,-0.182,0.131,95.000
'0:10.240',0.100,-0.058,-0.173,0.118,95.000
'0:10.250',0.160,-0.057,-0.165,0.105,95.000
'0:10.260',0.200,-0.057,-0.156,0.092,95.000
'0:10.270',0.215,-0.057,-0.147,0.079,95.000
'0:10.280',0.250,-0.057,-0.138,0.067,95.000
'0:10.290',0.285,-0.057,-0.129,0.054,95.000
'0:10.300',0.310,-0.057,-0.120,0.042,95.000
'0:10.310',0.320,-0.057,-0.112,0.030,95.000
'0:10.320',0.305,-0.057,-0.104,0.018,95.000
'0:10.330',0.270,-0.057,-0.097,0.007,95.000
'0:10.340',0.200,-0.057,-0.089,-0.005,95.000
'0:10.350',0.140,-0.058,-0.082,-0.017,95.000
'0:10.360',0.075,-0.057,-0.078,-0.028,95.000
'0:10.370',0.005,-0.056,-0.074,-0.039,95.000
'0:10.380',-0.015,-0.056,-0.071,-0.050,95.000
'0:10.390',-0.045,-0.055,-0.067,-0.061,95.000
'0:10.400',-0.020,-0.054,-0.064,-0.072,95.000
'0:10.410',-0.035,-0.054,-0.061,-0.082,95.000
'0:10.420',-0.035,-0.055,-0.059,-0.091,95.000
'0:10.430',-0.030,-0.055,-0.056,-0.101,95.000
'0:10.440',-0.030,-0.055,-0.054,-0.111,95.000
'0:10.450',-0.040,-0.056,-0.051,-0.121,95.000
'0:10.460',-0.025,-0.055,-0.048,-0.131,95.000
'0:10.470',-0.020,-0.055,-0.046,-0.140,95.000
'0:10.480',-0.035,-0.054,-0.043,-0.149,95.000
'0:10.490',-0.020,-0.054,-0.040,-0.158,95.000
'0:10.500',-0.035,-0.053,-0.037,-0.167,95.000
'0:10.510',-0.040,-0.053,-0.035,-0.176,95.000
'0:10.520',-0.040,-0.053,-0.033,-0.185,95.000
'0:10.530',-0.045,-0.054,-0.031,-0.193,95.000
'0:10.540',-0.045,-0.054,-0.029,-0.202,95.000
'0:10.550',-0.045,-0.054,-0.027,-0.211,95.000
'0:10.560',-0.060,-0.052,-0.024,-0.219,95.000
'0:10.570',-0.050,-0.051,-0.021,-0.227,95.000
'0:10.580',-0.035,-0.049,-0.018,-0.234,95.000
'0:10.590',0.005,-0.047,-0.016,-0.242,95.000
'0:10.600',0.040,-0.046,-0.013,-0.250,95.000
'0:10.610',0.050,-0.045,-0.011,-0.257,95.000
'0:10.620',0.045,-0.045,-0.009,-0.265,95.000
'0:10.630',0.125,-0.044,-0.007,-0.272,95.000
'0:10.640',0.090,-0.044,-0.005,-0.279,95.000
'0:10.650',0.060,-0.044,-0.003,-0.286,95.000
'0:10.660',-0.020,-0.045,0.001,-0.293,95.000
'0:10.670',-0.015,-0.046,0.004,-0.299,95.000
'0:10.680',-0.090,-0.047,0.007,-0.306,95.000
'0:10.690',-0.095,-0.048,0.011,-0.313,95.000
'0:10.700',-0.120,-0.049,0.014,-0.319,95.000
'0:10.710',-0.120,-0.049,0.022,-0.326,95.000
'0:10.720',-0.115,-0.049,0.029,-0.332,95.000
'0:10.730',-0.095,-0.048,0.037,-0.339,95.000
'0:10.740',-0.125,-0.048,0.044,-0.345,95.000
'0:10.750',-0.095,-0.048,0.052,-0.352,95.000
'0:10.760',-0.070,-0.050,0.060,-0.358,95.000
'0:10.770',0.130,-0.051,0.069,-0.364,95.000
'0:10.780',0.505,-0.053,0.078,-0.370,95.000
'0:10.790',-0.145,-0.055,0.087,-0.376,95.000
'0:10.800',-0.370,-0.057,0.096,-0.382,95.000
'0:10.810',-0.260,-0.058,0.101,-0.387,95.000
'0:10.820',-0.170,-0.058,0.106,-0.393,95.000
'0:10.830',-0.085,-0.059,0.111,-0.398,95.000
'0:10.840',-0.105,-0.059,0.116,-0.404,95.000
'0:10.850',-0.095,-0.059,0.122,-0.409,95.000
'0:10.860',-0.105,-0.059,0.126,-0.414,95.000
'0:10.870',-0.095,-0.058,0.130,-0.419,95.000
'0:10.880',-0.085,-0.058,0.135,-0.423,95.000
'0:10.890',-0.100,-0.057,0.139,-0.428,95.000
'0:10.900',-0.065,-0.056,0.144,-0.433,95.000
'0:10.910',-0.045,-0.057,0.150,-0.437,95.000
'0:10.920',-0.065,-0.057,0.157,-0.441,95.000
'0:10.930',-0.035,-0.057,0.163,-0.446,95.000
'0:10.940',-0.040,-0.057,0.169,-0.450,95.000
'0:10.950',0.000,-0.058,0.176,-0.454,95.000
'0:10.960',0.030,-0.058,0.181,-0.458,95.000
'0:10.970',0.045,-0.058,0.186,-0.462,95.000
'0:10.980',0.055,-0.058,0.192,-0.466,95.000
'0:10.990',0.095,-0.057,0.197,-0.470,95.000
'0:11.000',0.120,-0.057,0.203,-0.473,95.000
'0:11.010',0.175,-0.058,0.209,-0.477,95.000
'0:11.020',0.220,-0.058,0.215,-0.480,95.000
'0:11.030',0.240,-0.059,0.221,-0.483,95.000
'0:11.040',0.260,-0.059,0.227,-0.486,95.000
'0:11.050',0.280,-0.060,0.233,-0.490,95.000
'0:11.060',0.310,-0.059,0.233,-0.492,95.000
'0:11.070',0.310,-0.059,0.233,-0.495,95.000
'0:11.080',0.290,-0.058,0.234,-0.498,95.000
'0:11.090',0.215,-0.058,0.234,-0.501,95.000
'0:11.100',0.145,-0.057,0.234,-0.503,95.000
'0:11.110',0.080,-0.057,0.230,-0.506,95.000
'0:11.120',0.035,-0.056,0.226,-0.508,95.000
'0:11.130',-0.010,-0.056,0.222,-0.510,95.000
'0:11.140',-0.025,-0.056,0.218,-0.512,95.000
'0:11.150',-0.035,-0.056,0.214,-0.514,95.000
'0:11.160',-0.070,-0.056,0.210,-0.515,95.000
'0:11.170',-0.035,-0.056,0.206,-0.515,95.000
'0:11.180',-0.040,-0.056,0.203,-0.515,95.000
'0:11.190',-0.030,-0.057,0.199,-0.516,95.000
'0:11.200',-0.035,-0.057,0.195,-0.516,95.000
'0:11.210',-0.025,-0.057,0.188,-0.513,95.000
'0:11.220',-0.015,-0.057,0.182,-0.510,95.000
'0:11.230',-0.020,-0.057,0.175,-0.507,95.000
'0:11.240',-0.025,-0.057,0.168,-0.504,95.000
'0:11.250',-0.045,-0.057,0.161,-0.502,95.000
'0:11.260',-0.055,-0.058,0.155,-0.495,95.000
'0:11.270',-0.035,-0.059,0.149,-0.489,95.000
'0:11.280',-0.030,-0.060,0.143,-0.482,95.000
'0:11.290',-0.040,-0.060,0.137,-0.476,95.000
'0:11.300',-0.035,-0.061,0.130,-0.470,95.000
'0:11.310',-0.050,-0.062,0.124,-0.461,95.000
'0:11.320',-0.055,-0.062,0.118,-0.452,95.000
'0:11.330',-0.055,-0.062,0.112,-0.443,95.000
'0:11.340',-0.050,-0.062,0.106,-0.434,95.000
'0:11.350',-0.070,-0.062,0.100,-0.425,95.000
'0:11.360',0.000,-0.062,0.092,-0.415,95.000
'0:11.370',0.050,-0.061,0.084,-0.405,95.000
'0:11.380',0.065,-0.060,0.076,-0.395,95.000
'0:11.390',0.060,-0.060,0.068,-0.385,95.000
'0:11.400',0.125,-0.059,0.060,-0.375,95.000
'0:11.410',0.100,-0.058,0.051,-0.365,95.000
'0:11.420',0.065,-0.058,0.043,-0.354,95.000
'0:11.430',0.005,-0.057,0.035,-0.344,95.000
'0:11.440',0.000,-0.056,0.027,-0.334,95.000
'0:11.450',-0.090,-0.056,0.018,-0.323,95.000
'0:11.460',-0.100,-0.056,0.012,-0.312,95.000
'0:11.470',-0.105,-0.056,0.006,-0.301,95.000
'0:11.480',-0.085,-0.056,-0.000,-0.291,95.000
'0:11.490',-0.105,-0.057,-0.006,-0.280,95.000
'0:11.500',-0.110,-0.057,-0.012,-0.269,95.000
'0:11.510',-0.115,-0.058,-0.016,-0.258,95.000
'0:11.520',-0.100,-0.059,-0.019,-0.247,95.000
'0:11.530',-0.070,-0.060,-0.023,-0.236,95.000
'0:11.540',0.185,-0.061,-0.027,-0.225,95.000
'0:11.550',0.530,-0.062,-0.030,-0.214,95.000
'0:11.560',-0.175,-0.062,-0.033,-0.203,95.000
'0:11.570',-0.395,-0.062,-0.035,-0.192,95.000
'0:11.580',-0.230,-0.062,-0.038,-0.181,95.000
'0:11.590',-0.110,-0.062,-0.040,-0.170,95.000
'0:11.600',-0.065,-0.063,-0.043,-0.158,95.000
'0:11.610',-0.100,-0.063,-0.045,-0.147,95.000
'0:11.620',-0.110,-0.064,-0.048,-0.137,95.000
'0:11.630',-0.120,-0.065,-0.051,-0.126,95.000
'0:11.640',-0.085,-0.066,-0.054,-0.115,95.000
'0:11.650',-0.090,-0.066,-0.057,-0.104,95.000
'0:11.660',-0.075,-0.067,-0.060,-0.093,95.000
'0:11.670',-0.080,-0.069,-0.062,-0.083,95.000
'0:11.680',-0.055,-0.070,-0.065,-0.072,95.000
'0:11.690',-0.060,-0.071,-0.068,-0.062,95.000
'0:11.700',-0.040,-0.072,-0.070,-0.051,95.000
'0:11.710',-0.035,-0.071,-0.072,-0.041,95.000
'0:11.720',0.000,-0.071,-0.074,-0.031,95.000
'0:11.730',0.010,-0.071,-0.076,-0.021,95.000
'0:11.740',0.035,-0.070,-0.077,-0.010,95.000
'0:11.750',0.055,-0.070,-0.079,-0.000,95.000
'0:11.760',0.100,-0.070,-0.085,0.009,95.000
'0:11.770',0.125,-0.071,-0.091,0.019,95.000
'0:11.780',0.160,-0.072,-0.096,0.028,95.000
'0:11.790',0.190,-0.072,-0.102,0.038,95.000
'0:11.800',0.235,-0.073,-0.108,0.047,95.000
'0:11.810',0.280,-0.073,-0.117,0.056,95.000
'0:11.820',0.300,-0.073,-0.127,0.065,95.000
'0:11.830',0.295,-0.074,-0.137,0.074,95.000
'0:11.840',0.295,-0.074,-0.146,0.083,95.000
'0:11.850',0.265,-0.074,-0.156,0.092,95.000
'0:11.860',0.210,-0.074,-0.166,0.101,95.000
'0:11.870',0.140,-0.073,-0.175,0.109,95.000
'0:11.880',0.080,-0.073,-0.185,0.118,95.000
'0:11.890',0.020,-0.072,-0.195,0.126,95.000
'0:11.900',-0.010,-0.072,-0.204,0.135,95.000
'0:11.910',-0.030,-0.072,-0.213,0.143,95.000
'0:11.920',-0.030,-0.072,-0.221,0.151,95.000
'0:11.930',-0.025,-0.072,-0.230,0.159,95.000
'0:11.940',-0.035,-0.072,-0.239,0.167,95.000
'0:11.950',-0.050,-0.072,-0.247,0.175,95.000
'0:11.960',-0.035,-0.072,-0.256,0.182,95.000
'0:11.970',-0.030,-0.072,-0.264,0.189,95.000
'0:11.980',-0.030,-0.072,-0.273,0.197,95.000
'0:11.990',-0.020,-0.072,-0.281,0.204,95.000
'0:12.000',-0.030,-0.072,-0.290,0.212,95.000
'0:12.010',-0.020,-0.072,-0.296,0.218,95.000
'0:12.020',-0.040,-0.072,-0.303,0.225,95.000
'0:12.030',-0.025,-0.071,-0.309,0.232,95.000
'0:12.040',-0.050,-0.071,-0.316,0.238,95.000
'0:12.050',-0.040,-0.071,-0.323,0.245,95.000
'0:12.060',-0.070,-0.071,-0.327,0.251,95.000
'0:12.070',-0.060,-0.072,-0.331,0.257,95.000
'0:12.080',-0.050,-0.072,-0.335,0.263,95.000
'0:12.090',-0.070,-0.072,-0.339,0.268,95.000
'0:12.100',-0.070,-0.072,-0.343,0.274,95.000
'0:12.110',-0.065,-0.073,-0.347,0.279,95.000
'0:12.120',-0.065,-0.073,-0.352,0.284,95.000
'0:12.130',-0.005,-0.073,-0.356,0.289,95.000
'0:12.140',0.040,-0.073,-0.361,0.294,95.000
'0:12.150',0.045,-0.074,-0.365,0.299,95.000
'0:12.160',0.050,-0.073,-0.370,0.304,95.000
'0:12.170',0.120,-0.072,-0.374,0.308,95.000
'0:12.180',0.095,-0.072,-0.378,0.312,95.000
'0:12.190',0.040,-0.071,-0.382,0.317,95.000
'0:12.200',0.000,-0.071,-0.387,0.321,95.000
'0:12.210',-0.005,-0.071,-0.389,0.325,95.000
'0:12.220',-0.075,-0.071,-0.392,0.329,95.000
'0:12.230',-0.110,-0.072,-0.394,0.332,95.000
'0:12.240',-0.120,-0.072,-0.396,0.336,95.000
'0:12.250',-0.100,-0.073,-0.399,0.340,95.000
'0:12.260',-0.100,-0.072,-0.400,0.343,95.000
'0:12.270',-0.100,-0.072,-0.401,0.347,95.000
'0:12.280',-0.115,-0.072,-0.402,0.350,95.000
'0:12.290',-0.105,-0.072,-0.403,0.353,95.000
'0:12.300',-0.105,-0.072,-0.404,0.356,95.000
'0:12.310',0.105,-0.073,-0.405,0.359,95.000
'0:12.320',0.415,-0.073,-0.406,0.362,95.000
'0:12.330',-0.220,-0.073,-0.407,0.365,95.000
'0:12.340',-0.435,-0.074,-0.408,0.368,95.000
'0:12.350',-0.255,-0.074,-0.409,0.371,95.000
'0:12.360',-0.125,-0.074,-0.411,0.373,95.000
'0:12.370',-0.100,-0.074,-0.413,0.376,95.000
'0:12.380',-0.110,-0.075,-0.415,0.378,95.000
'0:12.390',-0.100,-0.075,-0.417,0.381,95.000
'0:12.400',-0.115,-0.075,-0.419,0.384,95.000
'0:12.410',-0.100,-0.075,-0.420,0.386,95.000
'0:12.420',-0.105,-0.076,-0.420,0.388,95.000
'0:12.430',-0.085,-0.076,-0.421,0.390,95.000
'0:12.440',-0.080,-0.076,-0.422,0.393,95.000
'0:12.450',-0.050,-0.076,-0.423,0.395,95.000
'0:12.460',-0.060,-0.076,-0.423,0.397,95.000
'0:12.470',-0.055,-0.076,-0.424,0.399,95.000
'0:12.480',-0.025,-0.075,-0.424,0.401,95.000
'0:12.490',0.005,-0.075,-0.425,0.403,95.000
'0:12.500',0.000,-0.075,-0.426,0.405,95.000
'0:12.510',0.025,-0.075,-0.426,0.407,95.000
'0:12.520',0.065,-0.075,-0.426,0.408,95.000
'0:12.530',0.095,-0.075,-0.426,0.410,95.000
'0:12.540',0.145,-0.075,-0.426,0.412,95.000
'0:12.550',0.185,-0.075,-0.426,0.414,95.000
'0:12.560',0.205,-0.076,-0.426,0.415,95.000
'0:12.570',0.245,-0.076,-0.425,0.417,95.000
'0:12.580',0.275,-0.077,-0.425,0.418,95.000
'0:12.590',0.295,-0.078,-0.425,0.420,95.000
'0:12.600',0.305,-0.079,-0.425,0.422,95.000
'0:12.610',0.325,-0.078,-0.424,0.423,95.000
'0:12.620',0.285,-0.077,-0.424,0.424,95.000
'0:12.630',0.215,-0.077,-0.423,0.426,95.000
'0:12.640',0.140,-0.076,-0.422,0.427,95.000
'0:12.650',0.080,-0.076,-0.421,0.428,95.000
'0:12.660',0.025,-0.076,-0.419,0.429,95.000
'0:12.670',-0.010,-0.076,-0.417,0.430,95.000
'0:12.680',-0.040,-0.076,-0.414,0.431,95.000
'0:12.690',-0.040,-0.076,-0.412,0.431,95.000
'0:12.700',-0.025,-0.076,-0.409,0.432,95.000
'0:12.710',-0.045,-0.075,-0.406,0.431,95.000
'0:12.720',-0.040,-0.074,-0.402,0.430,95.000
'0:12.730',-0.025,-0.073,-0.399,0.429,95.000
'0:12.740',-0.030,-0.072,-0.395,0.428,95.000
'0:12.750',-0.030,-0.071,-0.392,0.427,95.000
'0:12.760',-0.030,-0.070,-0.387,0.422,95.000
'0:12.770',-0.035,-0.068,-0.382,0.417,95.000
'0:12.780',-0.025,-0.067,-0.377,0.412,95.000
'0:12.790',-0.035,-0.066,-0.372,0.407,95.000
'0:12.800',-0.035,-0.065,-0.367,0.402,95.000
'0:12.810',-0.055,-0.067,-0.362,0.393,95.000
'0:12.820',-0.050,-0.068,-0.356,0.384,95.000
'0:12.830',-0.050,-0.069,-0.351,0.374,95.000
'0:12.840',-0.055,-0.071,-0.346,0.365,95.000
'0:12.850',-0.065,-0.072,-0.341,0.356,95.000
'0:12.860',-0.055,-0.073,-0.334,0.343,95.000
'0:12.870',-0.055,-0.073,-0.326,0.331,95.000
'0:12.880',-0.050,-0.073,-0.318,0.318,95.000
'0:12.890',-0.040,-0.073,-0.311,0.306,95.000
'0:12.900',0.025,-0.073,-0.303,0.293,95.000
'0:12.910',0.025,-0.072,-0.294,0.279,95.000
'0:12.920',0.075,-0.072,-0.284,0.264,95.000
'0:12.930',0.070,-0.071,-0.275,0.250,95.000
'0:12.940',0.135,-0.070,-0.266,0.236,95.000
'0:12.950',0.085,-0.070,-0.256,0.221,95.000
'0:12.960',0.030,-0.071,-0.239,0.207,95.000
'0:12.970',-0.005,-0.071,-0.222,0.192,95.000
'0:12.980',-0.025,-0.072,-0.206,0.177,95.000
'0:12.990',-0.100,-0.073,-0.189,0.163,95.000
'0:13.000',-0.100,-0.074,-0.172,0.148,95.000
'0:13.010',-0.125,-0.073,-0.156,0.133,95.000
'0:13.020',-0.080,-0.072,-0.140,0.119,95.000
'0:13.030',-0.105,-0.071,-0.125,0.104,95.000
'0:13.040',-0.090,-0.070,-0.109,0.090,95.000
'0:13.050',-0.125,-0.069,-0.094,0.075,95.000
'0:13.060',-0.070,-0.069,-0.090,0.062,95.000
'0:13.070',-0.060,-0.069,-0.087,0.048,95.000
'0:13.080',0.175,-0.069,-0.084,0.035,95.000
'0:13.090',0.505,-0.069,-0.081,0.021,95.000
'0:13.100',-0.355,-0.070,-0.077,0.007,95.000
'0:13.110',-0.365,-0.069,-0.072,-0.005,95.000
'0:13.120',-0.235,-0.069,-0.067,-0.018,95.000
'0:13.130',-0.130,-0.069,-0.062,-0.030,95.000
'0:13.140',-0.100,-0.068,-0.056,-0.042,95.000
'0:13.150',-0.115,-0.068,-0.051,-0.055,95.000
'0:13.160',-0.090,-0.067,-0.046,-0.066,95.000
'0:13.170',-0.110,-0.066,-0.041,-0.077,95.000
'0:13.180',-0.100,-0.065,-0.035,-0.089,95.000
'0:13.190',-0.095,-0.064,-0.030,-0.100,95.000
'0:13.200',-0.070,-0.063,-0.024,-0.111,95.000
'0:13.210',-0.070,-0.063,-0.017,-0.121,95.000
'0:13.220',-0.060,-0.064,-0.010,-0.131,95.000
'0:13.230',-0.060,-0.065,-0.003,-0.141,95.000
'0:13.240',-0.020,-0.066,0.004,-0.150,95.000
'0:13.250',-0.030,-0.067,0.011,-0.160,95.000
'0:13.260',0.010,-0.065,0.019,-0.168,95.000
'0:13.270',0.025,-0.064,0.027,-0.177,95.000
'0:13.280',0.055,-0.062,0.035,-0.185,95.000
'0:13.290',0.060,-0.061,0.043,-0.193,95.000
'0:13.300',0.115,-0.060,0.051,-0.202,95.000
'0:13.310',0.145,-0.059,0.057,-0.209,95.000
'0:13.320',0.200,-0.058,0.064,-0.216,95.000
'0:13.330',0.220,-0.058,0.070,-0.224,95.000
'0:13.340',0.275,-0.057,0.076,-0.231,95.000
'0:13.350',0.285,-0.056,0.082,-0.238,95.000
'0:13.360',0.310,-0.055,0.090,-0.244,95.000
'0:13.370',0.310,-0.054,0.098,-0.251,95.000
'0:13.380',0.320,-0.053,0.107,-0.257,95.000
'0:13.390',0.275,-0.052,0.115,-0.263,95.000
'0:13.400',0.225,-0.051,0.123,-0.270,95.000
'0:13.410',0.150,-0.050,0.128,-0.275,95.000
'0:13.420',0.060,-0.048,0.134,-0.281,95.000
'0:13.430',0.035,-0.046,0.139,-0.287,95.000
'0:13.440',0.000,-0.045,0.144,-0.293,95.000
'0:13.450',-0.015,-0.043,0.150,-0.299,95.000
'0:13.460',-0.035,-0.042,0.157,-0.305,95.000
'0:13.470',-0.030,-0.041,0.164,-0.310,95.000
'0:13.480',-0.035,-0.041,0.172,-0.316,95.000
'0:13.490',-0.020,-0.040,0.179,-0.321,95.000
'0:13.500',-0.040,-0.039,0.186,-0.327,95.000
'0:13.510',-0.015,-0.038,0.193,-0.332,95.000
'0:13.520',-0.030,-0.036,0.199,-0.337,95.000
'0:13.530',-0.035,-0.035,0.205,-0.343,95.000
'0:13.540',-0.010,-0.033,0.211,-0.348,95.000
'0:13.550',0.000,-0.032,0.218,-0.353,95.000
'0:13.560',-0.020,-0.032,0.222,-0.358,95.000
'0:13.570',-0.035,-0.032,0.226,-0.363,95.000
'0:13.580',-0.040,-0.031,0.230,-0.367,95.000
'0:13.590',-0.035,-0.031,0.234,-0.372,95.000
'0:13.600',-0.030,-0.031,0.238,-0.377,95.000
'0:13.610',-0.045,-0.031,0.244,-0.381,95.000
'0:13.620',-0.045,-0.032,0.251,-0.386,95.000
'0:13.630',-0.055,-0.032,0.257,-0.390,95.000
'0:13.640',-0.070,-0.032,0.263,-0.394,95.000
'0:13.650',-0.060,-0.032,0.270,-0.399,95.000
'0:13.660',-0.020,-0.032,0.275,-0.402,95.000
'0:13.670',0.055,-0.032,0.281,-0.406,95.000
'0:13.680',0.040,-0.032,0.287,-0.409,95.000
'0:13.690',0.055,-0.032,0.293,-0.413,95.000
'0:13.700',0.090,-0.032,0.299,-0.417,95.000
'0:13.710',0.110,-0.031,0.305,-0.419,95.000
'0:13.720',0.075,-0.031,0.311,-0.422,95.000
'0:13.730',0.010,-0.031,0.317,-0.425,95.000
'0:13.740',-0.005,-0.030,0.323,-0.428,95.000
'0:13.750',-0.060,-0.030,0.329,-0.431,95.000
'0:13.760',-0.120,-0.030,0.336,-0.434,95.000
'0:13.770',-0.090,-0.030,0.343,-0.436,95.000
'0:13.780',-0.115,-0.030,0.350,-0.438,95.000
'0:13.790',-0.115,-0.031,0.357,-0.440,95.000
'0:13.800',-0.125,-0.031,0.364,-0.443,95.000
'0:13.810',-0.105,-0.030,0.370,-0.444,95.000
'0:13.820',-0.120,-0.030,0.376,-0.446,95.000
'0:13.830',-0.060,-0.030,0.383,-0.448,95.000
'0:13.840',0.055,-0.030,0.389,-0.449,95.000
'0:13.850',0.375,-0.029,0.395,-0.451,95.000
'0:13.860',0.340,-0.029,0.399,-0.452,95.000
'0:13.870',-0.370,-0.029,0.402,-0.454,95.000
'0:13.880',-0.295,-0.029,0.406,-0.455,95.000
'0:13.890',-0.200,-0.029,0.410,-0.456,95.000
'0:13.900',-0.095,-0.028,0.414,-0.457,95.000
'0:13.910',-0.105,-0.029,0.417,-0.458,95.000
'0:13.920',-0.110,-0.029,0.420,-0.459,95.000
'0:13.930',-0.090,-0.030,0.422,-0.460,95.000
'0:13.940',-0.110,-0.030,0.425,-0.461,95.000
'0:13.950',-0.095,-0.031,0.428,-0.462,95.000
'0:13.960',-0.105,-0.031,0.426,-0.463,95.000
'0:13.970',-0.085,-0.032,0.425,-0.463,95.000
'0:13.980',-0.080,-0.032,0.424,-0.464,95.000
'0:13.990',-0.065,-0.032,0.423,-0.464,95.000
'0:14.000',-0.045,-0.032,0.422,-0.465,95.000
'0:14.010',-0.035,-0.033,0.415,-0.465,95.000
'0:14.020',-0.025,-0.033,0.408,-0.465,95.000
'0:14.030',0.000,-0.033,0.402,-0.465,95.000
'0:14.040',0.005,-0.034,0.396,-0.465,95.000
'0:14.050',0.040,-0.034,0.389,-0.465,95.000
'0:14.060',0.070,-0.033,0.381,-0.463,95.000
'0:14.070',0.120,-0.033,0.372,-0.462,95.000
'0:14.080',0.135,-0.032,0.364,-0.460,95.000
'0:14.090',0.195,-0.032,0.355,-0.458,95.000
'0:14.100',0.230,-0.031,0.347,-0.456,95.000
'0:14.110',0.255,-0.030,0.337,-0.451,95.000
'0:14.120',0.265,-0.029,0.327,-0.446,95.000
'0:14.130',0.295,-0.028,0.317,-0.441,95.000
'0:14.140',0.305,-0.027,0.307,-0.436,95.000
'0:14.150',0.300,-0.026,0.297,-0.431,95.000
'0:14.160',0.245,-0.026,0.287,-0.424,95.000
'0:14.170',0.175,-0.025,0.278,-0.416,95.000
'0:14.180',0.110,-0.025,0.268,-0.408,95.000
'0:14.190',0.040,-0.025,0.258,-0.400,95.000
'0:14.200',0.000,-0.024,0.248,-0.393,95.000
'0:14.210',-0.010,-0.025,0.240,-0.383,95.000
'0:14.220',-0.030,-0.025,0.232,-0.374,95.000
'0:14.230',-0.025,-0.025,0.224,-0.364,95.000
'0:14.240',-0.025,-0.026,0.216,-0.355,95.000
'0:14.250',-0.040,-0.026,0.208,-0.345,95.000
'0:14.260',-0.040,-0.027,0.200,-0.335,95.000
'0:14.270',-0.025,-0.028,0.193,-0.325,95.000
'0:14.280',-0.035,-0.029,0.185,-0.315,95.000
'0:14.290',-0.030,-0.030,0.177,-0.305,95.000
'0:14.300',-0.020,-0.031,0.170,-0.295,95.000
'0:14.310',-0.035,-0.032,0.161,-0.284,95.000
'0:14.320',-0.040,-0.033,0.151,-0.273,95.000
'0:14.330',-0.030,-0.033,0.142,-0.263,95.000
'0:14.340',-0.040,-0.034,0.132,-0.252,95.000
'0:14.350',-0.020,-0.035,0.123,-0.241,95.000
'0:14.360',-0.040,-0.034,0.112,-0.230,95.000
'0:14.370',-0.045,-0.033,0.101,-0.219,95.000
'0:14.380',-0.045,-0.032,0.090,-0.208,95.000
'0:14.390',-0.050,-0.032,0.080,-0.197,95.000
'0:14.400',-0.050,-0.031,0.069,-0.185,95.000
'0:14.410',-0.045,-0.030,0.061,-0.174,95.000
'0:14.420',-0.055,-0.030,0.052,-0.163,95.000
'0:14.430',-0.005,-0.030,0.044,-0.152,95.000
'0:14.440',0.035,-0.030,0.036,-0.141,95.000
'0:14.450',0.070,-0.030,0.028,-0.130,95.000
'0:14.460',0.085,-0.031,0.022,-0.119,95.000
'0:14.470',0.120,-0.032,0.017,-0.108,95.000
'0:14.480',0.095,-0.033,0.012,-0.096,95.000
'0:14.490',0.060,-0.034,0.007,-0.085,95.000
'0:14.500',0.000,-0.035,0.002,-0.074,95.000
'0:14.510',-0.005,-0.036,-0.001,-0.063,95.000
'0:14.520',-0.075,-0.036,-0.004,-0.052,95.000
'0:14.530',-0.100,-0.037,-0.007,-0.042,95.000
'0:14.540',-0.125,-0.037,-0.010,-0.031,95.000
'0:14.550',-0.105,-0.037,-0.013,-0.020,95.000
'0:14.560',-0.115,-0.038,-0.017,-0.010,95.000
'0:14.570',-0.090,-0.039,-0.020,0.001,95.000
'0:14.580',-0.115,-0.039,-0.023,0.011,95.000
'0:14.590',-0.110,-0.040,-0.026,0.021,95.000
'0:14.600',-0.095,-0.041,-0.029,0.032,95.000
'0:14.610',0.190,-0.041,-0.032,0.041,95.000
'0:14.620',0.520,-0.042,-0.034,0.051,95.000
'0:14.630',-0.250,-0.042,-0.037,0.061,95.000
'0:14.640',-0.405,-0.042,-0.040,0.070,95.000
'0:14.650',-0.220,-0.043,-0.042,0.080,95.000
'0:14.660',-0.105,-0.043,-0.045,0.089,95.000
'0:14.670',-0.090,-0.043,-0.047,0.099,95.000
'0:14.680',-0.115,-0.043,-0.050,0.108,95.000
'0:14.690',-0.100,-0.043,-0.052,0.117,95.000
'0:14.700',-0.120,-0.043,-0.055,0.126,95.000
'0:14.710',-0.095,-0.044,-0.059,0.135,95.000
'0:14.720',-0.090,-0.045,-0.062,0.144,95.000
'0:14.730',-0.085,-0.046,-0.066,0.153,95.000
'0:14.740',-0.085,-0.047,-0.069,0.162,95.000
'0:14.750',-0.065,-0.048,-0.073,0.171,95.000
'0:14.760',-0.060,-0.048,-0.082,0.179,95.000
'0:14.770',-0.045,-0.049,-0.092,0.187,95.000
'0:14.780',-0.030,-0.049,-0.101,0.195,95.000
'0:14.790',-0.015,-0.050,-0.111,0.203,95.000
'0:14.800',0.000,-0.051,-0.120,0.212,95.000
'0:14.810',0.020,-0.051,-0.137,0.219,95.000
'0:14.820',0.045,-0.051,-0.153,0.227,95.000
'0:14.830',0.090,-0.051,-0.170,0.235,95.000
'0:14.840',0.115,-0.051,-0.186,0.243,95.000
'0:14.850',0.175,-0.051,-0.203,0.250,95.000
'0:14.860',0.195,-0.051,-0.214,0.257,95.000
'0:14.870',0.240,-0.051,-0.225,0.265,95.000
'0:14.880',0.255,-0.051,-0.236,0.272,95.000
'0:14.890',0.275,-0.051,-0.247,0.279,95.000
'0:14.900',0.275,-0.051,-0.259,0.286,95.000
'0:14.910',0.305,-0.051,-0.266,0.293,95.000
'0:14.920',0.270,-0.051,-0.273,0.299,95.000
'0:14.930',0.200,-0.051,-0.280,0.306,95.000
'0:14.940',0.130,-0.051,-0.287,0.313,95.000
'0:14.950',0.080,-0.052,-0.294,0.320,95.000
'0:14.960',0.030,-0.052,-0.301,0.326,95.000
'0:14.970',-0.005,-0.052,-0.307,0.332,95.000
'0:14.980',-0.025,-0.052,-0.313,0.338,95.000
'0:14.990',-0.045,-0.052,-0.319,0.344,95.000
'0:15.000',-0.045,-0.052,-0.325,0.350,95.000
'0:15.010',-0.035,-0.051,-0.329,0.355,95.000
'0:15.020',-0.040,-0.050,-0.333,0.360,95.000
'0:15.030',-0.020,-0.050,-0.338,0.365,95.000
'0:15.040',-0.025,-0.049,-0.342,0.370,95.000
'0:15.050',-0.035,-0.049,-0.346,0.376,95.000
'0:15.060',-0.015,-0.049,-0.351,0.380,95.000
'0:15.070',-0.030,-0.050,-0.356,0.384,95.000
'0:15.080',-0.025,-0.051,-0.360,0.389,95.000
'0:15.090',-0.045,-0.052,-0.365,0.393,95.000
'0:15.100',-0.025,-0.053,-0.370,0.398,95.000
'0:15.110',-0.040,-0.052,-0.373,0.401,95.000
'0:15.120',-0.040,-0.052,-0.376,0.405,95.000
'0:15.130',-0.045,-0.052,-0.379,0.408,95.000
'0:15.140',-0.040,-0.051,-0.382,0.412,95.000
'0:15.150',-0.070,-0.051,-0.385,0.416,95.000
'0:15.160',-0.050,-0.051,-0.387,0.418,95.000
'0:15.170',-0.060,-0.050,-0.389,0.421,95.000
'0:15.180',-0.055,-0.050,-0.391,0.424,95.000
'0:15.190',-0.035,-0.049,-0.393,0.427,95.000
'0:15.200',0.030,-0.049,-0.394,0.430,95.000
'0:15.210',0.040,-0.050,-0.396,0.433,95.000
'0:15.220',0.075,-0.051,-0.398,0.435,95.000
'0:15.230',0.080,-0.052,-0.400,0.437,95.000
'0:15.240',0.110,-0.053,-0.402,0.440,95.000
'0:15.250',0.080,-0.054,-0.404,0.442,95.000
'0:15.260',0.015,-0.054,-0.405,0.444,95.000
'0:15.270',-0.020,-0.055,-0.406,0.446,95.000
'0:15.280',-0.045,-0.055,-0.407,0.448,95.000
'0:15.290',-0.105,-0.056,-0.408,0.450,95.000
'0:15.300',-0.100,-0.056,-0.409,0.452,95.000
'0:15.310',-0.120,-0.056,-0.410,0.453,95.000
'0:15.320',-0.105,-0.057,-0.411,0.455,95.000
'0:15.330',-0.125,-0.057,-0.412,0.457,95.000
'0:15.340',-0.095,-0.057,-0.413,0.458,95.000
'0:15.350',-0.130,-0.057,-0.414,0.460,95.000
'0:15.360',-0.090,-0.058,-0.414,0.461,95.000
'0:15.370',-0.050,-0.058,-0.414,0.462,95.000
'0:15.380',0.215,-0.059,-0.414,0.464,95.000
'0:15.390',0.360,-0.059,-0.415,0.465,95.000
'0:15.400',-0.475,-0.060,-0.415,0.466,95.000
'0:15.410',-0.385,-0.061,-0.414,0.467,95.000
'0:15.420',-0.190,-0.062,-0.412,0.469,95.000
'0:15.430',-0.085,-0.063,-0.411,0.470,95.000
'0:15.440',-0.100,-0.063,-0.409,0.471,95.000
'0:15.450',-0.125,-0.064,-0.408,0.472,95.000
'0:15.460',-0.090,-0.064,-0.408,0.473,95.000
'0:15.470',-0.105,-0.064,-0.407,0.474,95.000
'0:15.480',-0.105,-0.063,-0.407,0.475,95.000
'0:15.490',-0.105,-0.063,-0.407,0.475,95.000
'0:15.500',-0.080,-0.063,-0.406,0.476,95.000
'0:15.510',-0.080,-0.062,-0.405,0.477,95.000
'0:15.520',-0.060,-0.062,-0.403,0.477,95.000
'0:15.530',-0.065,-0.062,-0.401,0.478,95.000
'0:15.540',-0.035,-0.062,-0.399,0.478,95.000
'0:15.550',-0.035,-0.062,-0.397,0.479,95.000
'0:15.560',0.000,-0.062,-0.395,0.479,95.000
'0:15.570',0.010,-0.062,-0.392,0.479,95.000
'0:15.580',0.045,-0.061,-0.390,0.479,95.000
'0:15.590',0.055,-0.061,-0.387,0.479,95.000
'0:15.600',0.130,-0.061,-0.384,0.479,95.000
'0:15.610',0.145,-0.061,-0.382,0.476,95.000
'0:15.620',0.205,-0.062,-0.380,0.474,95.000
'0:15.630',0.205,-0.062,-0.377,0.472,95.000
'0:15.640',0.240,-0.062,-0.375,0.470,95.000
'0:15.650',0.280,-0.062,-0.373,0.468,95.000
'0:15.660',0.305,-0.062,-0.369,0.461,95.000
'0:15.670',0.325,-0.062,-0.365,0.455,95.000
'0:15.680',0.305,-0.062,-0.361,0.449,95.000
'0:15.690',0.250,-0.062,-0.357,0.443,95.000
'0:15.700',0.190,-0.062,-0.354,0.437,95.000
'0:15.710',0.105,-0.061,-0.347,0.427,95.000
'0:15.720',0.030,-0.060,-0.341,0.417,95.000
'0:15.730',0.015,-0.060,-0.335,0.407,95.000
'0:15.740',-0.010,-0.059,-0.329,0.397,95.000
'0:15.750',-0.020,-0.058,-0.323,0.388,95.000
'0:15.760',-0.040,-0.058,-0.314,0.375,95.000
'0:15.770',-0.040,-0.058,-0.304,0.363,95.000
'0:15.780',-0.045,-0.058,-0.295,0.350,95.000
'0:15.790',-0.025,-0.058,-0.285,0.338,95.000
'0:15.800',-0.040,-0.058,-0.276,0.325,95.000
'0:15.810',-0.025,-0.057,-0.266,0.312,95.000
'0:15.820',-0.035,-0.057,-0.256,0.298,95.000
'0:15.830',0.000,-0.056,-0.246,0.285,95.000
'0:15.840',-0.010,-0.055,-0.237,0.271,95.000
'0:15.850',-0.020,-0.055,-0.227,0.258,95.000
'0:15.860',-0.025,-0.055,-0.210,0.244,95.000
'0:15.870',-0.025,-0.056,-0.193,0.231,95.000
'0:15.880',-0.030,-0.056,-0.176,0.218,95.000
'0:15.890',-0.025,-0.057,-0.159,0.204,95.000
'0:15.900',-0.045,-0.057,-0.142,0.191,95.000
'0:15.910',-0.030,-0.057,-0.129,0.178,95.000
'0:15.920',-0.040,-0.056,-0.115,0.165,95.000
'0:15.930',-0.045,-0.055,-0.102,0.153,95.000
'0:15.940',-0.010,-0.055,-0.088,0.140,95.000
'0:15.950',0.065,-0.054,-0.075,0.127,96.000
'0:15.960',0.050,-0.054,-0.073,0.115,96.000
'0:15.970',0.080,-0.054,-0.070,0.103,96.000
'0:15.980',0.115,-0.054,-0.068,0.091,96.000
'0:15.990',0.135,-0.054,-0.066,0.080,96.000
'0:16.000',0.110,-0.054,-0.064,0.068,96.000
'0:16.010',0.030,-0.055,-0.061,0.057,96.000
'0:16.020',0.015,-0.056,-0.059,0.047,96.000
'0:16.030',-0.030,-0.057,-0.056,0.036,96.000
'0:16.040',-0.105,-0.058,-0.054,0.026,96.000
'0:16.050',-0.080,-0.059,-0.051,0.015,96.000
'0:16.060',-0.095,-0.059,-0.049,0.005,96.000
'0:16.070',-0.085,-0.058,-0.047,-0.004,96.000
'0:16.080',-0.105,-0.058,-0.045,-0.014,96.000
'0:16.090',-0.075,-0.057,-0.043,-0.024,96.000
'0:16.100',-0.110,-0.057,-0.040,-0.033,96.000
'0:16.110',-0.030,-0.056,-0.037,-0.042,96.000
'0:16.120',0.010,-0.056,-0.034,-0.051,96.000
'0:16.130',0.285,-0.056,-0.031,-0.060,96.000
'0:16.140',0.345,-0.056,-0.027,-0.069,96.000
'0:16.150',-0.395,-0.056,-0.024,-0.077,96.000
'0:16.160',-0.320,-0.055,-0.020,-0.085,96.000
'0:16.170',-0.190,-0.054,-0.016,-0.093,96.000
'0:16.180',-0.075,-0.054,-0.012,-0.101,96.000
'0:16.190',-0.080,-0.053,-0.007,-0.108,96.000
'0:16.200',-0.105,-0.053,-0.003,-0.116,96.000
'0:16.210',-0.065,-0.052,0.004,-0.123,96.000
'0:16.220',-0.095,-0.052,0.011,-0.130,96.000
'0:16.230',-0.085,-0.051,0.018,-0.137,96.000
'0:16.240',-0.070,-0.051,0.025,-0.144,96.000
'0:16.250',-0.055,-0.051,0.032,-0.151,96.000
'0:16.260',-0.065,-0.051,0.042,-0.158,96.000
'0:16.270',-0.035,-0.051,0.051,-0.164,96.000
'0:16.280',-0.035,-0.051,0.061,-0.171,96.000
'0:16.290',-0.010,-0.051,0.070,-0.177,96.000
'0:16.300',-0.010,-0.051,0.080,-0.184,96.000
'0:16.310',0.000,-0.052,0.086,-0.190,96.000
'0:16.320',0.030,-0.052,0.092,-0.196,96.000
'0:16.330',0.055,-0.052,0.098,-0.202,96.000
'0:16.340',0.090,-0.052,0.104,-0.208,96.000
'0:16.350',0.135,-0.053,0.111,-0.214,96.000
'0:16.360',0.160,-0.052,0.117,-0.220,96.000
'0:16.370',0.195,-0.052,0.124,-0.226,96.000
'0:16.380',0.240,-0.052,0.130,-0.232,96.000
'0:16.390',0.280,-0.052,0.137,-0.238,96.000
'0:16.400',0.290,-0.052,0.143,-0.244,96.000
'0:16.410',0.320,-0.051,0.149,-0.250,96.000
'0:16.420',0.330,-0.050,0.155,-0.255,96.000
'0:16.430',0.310,-0.050,0.161,-0.261,96.000
'0:16.440',0.255,-0.049,0.167,-0.267,96.000
'0:16.450',0.185,-0.048,0.172,-0.273,96.000
'0:16.460',0.115,-0.048,0.178,-0.279,96.000
'0:16.470',0.060,-0.047,0.184,-0.285,96.000
'0:16.480',0.005,-0.047,0.190,-0.290,96.000
'0:16.490',-0.010,-0.047,0.195,-0.296,96.000
'0:16.500',-0.035,-0.046,0.201,-0.302,96.000
'0:16.510',-0.015,-0.046,0.210,-0.306,96.000
'0:16.520',-0.015,-0.045,0.219,-0.311,96.000
'0:16.530',-0.030,-0.045,0.228,-0.316,96.000
'0:16.540',-0.035,-0.044,0.238,-0.321,96.000
'0:16.550',-0.020,-0.044,0.247,-0.326,96.000
'0:16.560',-0.005,-0.044,0.255,-0.330,96.000
'0:16.570',-0.010,-0.043,0.264,-0.335,96.000
'0:16.580',0.000,-0.043,0.272,-0.339,96.000
'0:16.590',-0.025,-0.043,0.281,-0.344,96.000
'0:16.600',-0.010,-0.043,0.289,-0.348,96.000
'0:16.610',-0.035,-0.044,0.297,-0.352,96.000
'0:16.620',-0.025,-0.044,0.305,-0.356,96.000
'0:16.630',-0.020,-0.045,0.313,-0.360,96.000
'0:16.640',-0.030,-0.045,0.322,-0.364,96.000
'0:16.650',-0.025,-0.046,0.330,-0.368,96.000
'0:16.660',-0.045,-0.046,0.337,-0.371,96.000
'0:16.670',-0.050,-0.046,0.345,-0.375,96.000
'0:16.680',-0.030,-0.046,0.352,-0.378,96.000
'0:16.690',-0.025,-0.046,0.359,-0.382,96.000
'0:16.700',0.050,-0.046,0.367,-0.385,96.000
'0:16.710',0.045,-0.046,0.370,-0.387,96.000
'0:16.720',0.085,-0.046,0.372,-0.390,96.000
'0:16.730',0.080,-0.046,0.375,-0.393,96.000
'0:16.740',0.125,-0.046,0.377,-0.395,96.000
'0:16.750',0.105,-0.046,0.380,-0.398,96.000
'0:16.760',0.020,-0.046,0.379,-0.399,96.000
'0:16.770',-0.010,-0.045,0.377,-0.401,96.000
'0:16.780',-0.025,-0.045,0.376,-0.403,96.000
'0:16.790',-0.110,-0.044,0.375,-0.405,96.000
'0:16.800',-0.090,-0.043,0.373,-0.406,96.000
'0:16.810',-0.105,-0.043,0.367,-0.407,96.000
'0:16.820',-0.080,-0.043,0.361,-0.409,96.000
'0:16.830',-0.115,-0.042,0.355,-0.410,96.000
'0:16.840',-0.095,-0.042,0.349,-0.411,96.000
'0:16.850',-0.115,-0.042,0.343,-0.412,96.000
'0:16.860',-0.050,-0.043,0.335,-0.411,96.000
'0:16.870',0.015,-0.043,0.327,-0.410,96.000
'0:16.880',0.335,-0.044,0.318,-0.410,96.000
'0:16.890',0.500,-0.045,0.310,-0.409,96.000
'0:16.900',-0.365,-0.045,0.302,-0.408,96.000
'0:16.910',-0.315,-0.045,0.294,-0.403,96.000
'0:16.920',-0.150,-0.046,0.287,-0.399,96.000
'0:16.930',-0.060,-0.046,0.279,-0.394,96.000
'0:16.940',-0.075,-0.046,0.271,-0.389,96.000
'0:16.950',-0.090,-0.046,0.263,-0.385,96.000
'0:16.960',-0.090,-0.046,0.253,-0.377,96.000
'0:16.970',-0.100,-0.046,0.242,-0.369,96.000
'0:16.980',-0.075,-0.045,0.232,-0.361,96.000
'0:16.990',-0.100,-0.045,0.221,-0.353,96.000
'0:17.000',-0.055,-0.045,0.211,-0.345,96.000
'0:17.010',-0.065,-0.046,0.201,-0.335,96.000
'0:17.020',-0.050,-0.046,0.192,-0.325,96.000
'0:17.030',-0.050,-0.047,0.183,-0.315,96.000
'0:17.040',-0.025,-0.048,0.173,-0.306,96.000
'0:17.050',-0.025,-0.049,0.164,-0.296,96.000
'0:17.060',0.010,-0.050,0.155,-0.285,96.000
'0:17.070',0.025,-0.051,0.146,-0.273,96.000
'0:17.080',0.065,-0.052,0.136,-0.262,96.000
'0:17.090',0.070,-0.052,0.127,-0.251,96.000
'0:17.100',0.120,-0.053,0.118,-0.240,96.000
'0:17.110',0.135,-0.052,0.107,-0.228,96.000
'0:17.120',0.180,-0.051,0.096,-0.217,96.000
'0:17.130',0.225,-0.050,0.085,-0.205,96.000
'0:17.140',0.260,-0.049,0.074,-0.193,96.000
'0:17.150',0.280,-0.048,0.064,-0.182,96.000
'0:17.160',0.290,-0.048,0.055,-0.170,96.000
'0:17.170',0.295,-0.047,0.046,-0.159,96.000
'0:17.180',0.300,-0.047,0.037,-0.147,96.000
'0:17.190',0.245,-0.046,0.029,-0.135,96.000
'0:17.200',0.175,-0.046,0.020,-0.124,96.000
'0:17.210',0.090,-0.046,0.015,-0.112,96.000
'0:17.220',0.040,-0.045,0.009,-0.101,96.000
'0:17.230',0.000,-0.045,0.004,-0.089,96.000
'0:17.240',-0.005,-0.045,-0.001,-0.078,96.000
'0:17.250',-0.025,-0.045,-0.007,-0.067,96.000
'0:17.260',-0.035,-0.045,-0.010,-0.056,96.000
'0:17.270',-0.035,-0.045,-0.013,-0.045,96.000
'0:17.280',-0.050,-0.045,-0.017,-0.034,96.000
'0:17.290',-0.020,-0.045,-0.020,-0.023,96.000
'0:17.300',-0.040,-0.045,-0.023,-0.012,96.000
'0:17.310',-0.030,-0.046,-0.026,-0.002,96.000
'0:17.320',-0.025,-0.047,-0.029,0.009,96.000
'0:17.330',-0.015,-0.048,-0.032,0.019,96.000
'0:17.340',-0.030,-0.049,-0.035,0.029,96.000
'0:17.350',-0.035,-0.050,-0.038,0.039,96.000
'0:17.360',-0.030,-0.051,-0.041,0.049,96.000
'0:17.370',-0.035,-0.052,-0.044,0.059,96.000
'0:17.380',-0.030,-0.054,-0.048,0.069,96.000
'0:17.390',-0.045,-0.055,-0.051,0.079,96.000
'0:17.400',-0.045,-0.056,-0.054,0.089,96.000
'0:17.410',-0.055,-0.058,-0.057,0.098,96.000
'0:17.420',-0.065,-0.059,-0.060,0.107,96.000
'0:17.430',-0.060,-0.060,-0.062,0.117,96.000
'0:17.440',-0.020,-0.061,-0.065,0.126,96.000
'0:17.450',0.055,-0.063,-0.068,0.136,96.000
'0:17.460',0.060,-0.063,-0.072,0.144,96.000
'0:17.470',0.070,-0.062,-0.076,0.153,96.000
'0:17.480',0.120,-0.062,-0.081,0.162,96.000
'0:17.490',0.100,-0.062,-0.085,0.171,96.000
'0:17.500',0.075,-0.062,-0.089,0.180,96.000
'0:17.510',0.005,-0.061,-0.101,0.188,96.000
'0:17.520',0.015,-0.060,-0.113,0.196,96.000
'0:17.530',-0.075,-0.059,-0.125,0.204,96.000
'0:17.540',-0.100,-0.058,-0.137,0.213,96.000
'0:17.550',-0.125,-0.057,-0.149,0.221,96.000
'0:17.560',-0.110,-0.057,-0.164,0.228,96.000
'0:17.570',-0.095,-0.056,-0.178,0.236,96.000
'0:17.580',-0.100,-0.055,-0.193,0.244,96.000
'0:17.590',-0.120,-0.054,-0.207,0.251,96.000
'0:17.600',-0.105,-0.054,-0.221,0.259,96.000
'0:17.610',-0.080,-0.054,-0.231,0.266,96.000
'0:17.620',0.120,-0.055,-0.241,0.273,96.000
'0:17.630',0.415,-0.055,-0.250,0.280,96.000
'0:17.640',-0.105,-0.056,-0.260,0.287,96.000
'0:17.650',-0.425,-0.057,-0.270,0.294,96.000
'0:17.660',-0.275,-0.056,-0.277,0.300,96.000
'0:17.670',-0.115,-0.056,-0.283,0.307,96.000
'0:17.680',-0.080,-0.056,-0.290,0.313,96.000
'0:17.690',-0.100,-0.056,-0.297,0.319,96.000
'0:17.700',-0.105,-0.056,-0.303,0.325,96.000
'0:17.710',-0.105,-0.055,-0.308,0.331,96.000
'0:17.720',-0.100,-0.055,-0.313,0.336,96.000
'0:17.730',-0.095,-0.055,-0.318,0.341,96.000
'0:17.740',-0.090,-0.054,-0.323,0.346,96.000
'0:17.750',-0.080,-0.054,-0.328,0.352,96.000
'0:17.760',-0.065,-0.054,-0.332,0.356,96.000
'0:17.770',-0.075,-0.055,-0.336,0.360,96.000
'0:17.780',-0.050,-0.055,-0.340,0.364,96.000
'0:17.790',-0.040,-0.056,-0.344,0.369,96.000
'0:17.800',-0.015,-0.056,-0.348,0.373,96.000
'0:17.810',0.000,-0.055,-0.351,0.376,96.000
'0:17.820',0.025,-0.055,-0.355,0.380,96.000
'0:17.830',0.040,-0.054,-0.358,0.383,96.000
'0:17.840',0.080,-0.054,-0.361,0.387,96.000
'0:17.850',0.120,-0.054,-0.364,0.390,96.000
'0:17.860',0.150,-0.053,-0.367,0.393,96.000
'0:17.870',0.180,-0.053,-0.370,0.396,96.000
'0:17.880',0.220,-0.053,-0.373,0.399,96.000
'0:17.890',0.250,-0.052,-0.375,0.402,96.000
'0:17.900',0.260,-0.052,-0.378,0.405,96.000
'0:17.910',0.280,-0.052,-0.381,0.408,96.000
'0:17.920',0.295,-0.053,-0.385,0.410,96.000
'0:17.930',0.260,-0.053,-0.388,0.413,96.000
'0:17.940',0.205,-0.053,-0.392,0.415,96.000
'0:17.950',0.130,-0.053,-0.395,0.418,96.000
'0:17.960',0.060,-0.053,-0.396,0.420,96.000
'0:17.970',0.005,-0.054,-0.396,0.422,96.000
'0:17.980',-0.025,-0.054,-0.397,0.424,96.000
'0:17.990',-0.035,-0.054,-0.397,0.426,96.000
'0:18.000',-0.040,-0.054,-0.398,0.428,96.000
'0:18.010',-0.045,-0.055,-0.396,0.430,96.000
'0:18.020',-0.055,-0.055,-0.395,0.432,96.000
'0:18.030',-0.040,-0.056,-0.394,0.433,96.000
'0:18.040',-0.045,-0.057,-0.392,0.435,96.000
'0:18.050',-0.040,-0.058,-0.391,0.437,96.000
'0:18.060',-0.045,-0.059,-0.390,0.438,96.000
'0:18.070',-0.040,-0.059,-0.390,0.439,96.000
'0:18.080',-0.050,-0.060,-0.390,0.441,96.000
'0:18.090',-0.025,-0.061,-0.389,0.442,96.000
'0:18.100',-0.040,-0.062,-0.389,0.443,96.000
'0:18.110',-0.035,-0.062,-0.388,0.444,96.000
'0:18.120',-0.050,-0.061,-0.388,0.446,96.000
'0:18.130',-0.060,-0.061,-0.388,0.447,96.000
'0:18.140',-0.060,-0.060,-0.388,0.448,96.000
'0:18.150',-0.040,-0.060,-0.388,0.449,96.000
'0:18.160',-0.080,-0.060,-0.386,0.450,96.000
'0:18.170',-0.065,-0.060,-0.385,0.450,96.000
'0:18.180',-0.035,-0.060,-0.384,0.451,96.000
'0:18.190',0.040,-0.060,-0.382,0.452,96.000
'0:18.200',0.035,-0.060,-0.381,0.453,96.000
'0:18.210',0.080,-0.060,-0.377,0.452,96.000
'0:18.220',0.085,-0.060,-0.373,0.451,96.000
'0:18.230',0.110,-0.060,-0.369,0.450,96.000
'0:18.240',0.080,-0.060,-0.365,0.448,96.000
'0:18.250',0.010,-0.060,-0.361,0.447,96.000
'0:18.260',0.000,-0.060,-0.357,0.442,96.000
'0:18.270',-0.050,-0.059,-0.352,0.437,96.000
'0:18.280',-0.105,-0.059,-0.348,0.432,96.000
'0:18.290',-0.105,-0.058,-0.343,0.427,96.000
'0:18.300',-0.130,-0.057,-0.339,0.422,96.000
'0:18.310',-0.100,-0.057,-0.331,0.413,96.000
'0:18.320',-0.120,-0.057,-0.323,0.404,96.000
'0:18.330',-0.115,-0.057,-0.316,0.394,96.000
'0:18.340',-0.145,-0.056,-0.308,0.385,96.000
'0:18.350',-0.045,-0.056,-0.300,0.375,96.000
'0:18.360',0.020,-0.056,-0.283,0.363,96.000
'0:18.370',0.230,-0.057,-0.266,0.351,96.000
'0:18.380',0.305,-0.057,-0.249,0.339,96.000
'0:18.390',-0.445,-0.057,-0.232,0.326,96.000
'0:18.400',-0.350,-0.057,-0.214,0.314,96.000
'0:18.410',-0.190,-0.058,-0.194,0.300,96.000
'0:18.420',-0.090,-0.059,-0.173,0.286,96.000
'0:18.430',-0.110,-0.060,-0.153,0.272,96.000
'0:18.440',-0.120,-0.061,-0.132,0.258,96.000
'0:18.450',-0.090,-0.062,-0.112,0.245,96.000
'0:18.460',-0.120,-0.061,-0.102,0.230,96.000
'0:18.470',-0.085,-0.061,-0.092,0.215,96.000
'0:18.480',-0.090,-0.060,-0.083,0.201,96.000
'0:18.490',-0.080,-0.060,-0.073,0.186,96.000
'0:18.500',-0.085,-0.059,-0.063,0.171,96.000
'0:18.510',-0.045,-0.059,-0.059,0.157,96.000
'0:18.520',-0.040,-0.058,-0.055,0.143,96.000
'0:18.530',-0.015,-0.058,-0.051,0.128,96.000
'0:18.540',-0.045,-0.057,-0.047,0.114,96.000
'0:18.550',0.000,-0.057,-0.043,0.099,96.000
'0:18.560',0.005,-0.057,-0.039,0.086,96.000
'0:18.570',0.065,-0.057,-0.035,0.072,96.000
'0:18.580',0.085,-0.058,-0.030,0.058,96.000
'0:18.590',0.105,-0.058,-0.026,0.045,96.000
'0:18.600',0.140,-0.058,-0.022,0.031,96.000
'0:18.610',0.180,-0.057,-0.017,0.018,96.000
'0:18.620',0.220,-0.055,-0.011,0.005,96.000
'0:18.630',0.270,-0.054,-0.006,-0.007,96.000
'0:18.640',0.295,-0.052,-0.001,-0.020,96.000
'0:18.650',0.290,-0.051,0.005,-0.032,96.000
'0:18.660',0.290,-0.051,0.015,-0.044,96.000
'0:18.670',0.300,-0.051,0.026,-0.056,96.000
'0:18.680',0.250,-0.050,0.036,-0.067,96.000
'0:18.690',0.180,-0.050,0.047,-0.079,96.000
'0:18.700',0.085,-0.050,0.057,-0.090,96.000
'0:18.710',0.025,-0.051,0.070,-0.101,96.000
'0:18.720',-0.005,-0.051,0.083,-0.111,96.000
'0:18.730',-0.035,-0.052,0.096,-0.122,96.000
'0:18.740',-0.050,-0.052,0.109,-0.132,96.000
'0:18.750',-0.050,-0.053,0.122,-0.143,96.000
'0:18.760',-0.030,-0.052,0.136,-0.152,96.000
'0:18.770',-0.075,-0.051,0.150,-0.162,96.000
'0:18.780',-0.065,-0.050,0.164,-0.171,96.000
'0:18.790',-0.015,-0.049,0.178,-0.180,96.000
'0:18.800',-0.035,-0.048,0.192,-0.189,96.000
'0:18.810',-0.055,-0.048,0.204,-0.198,96.000
'0:18.820',-0.030,-0.047,0.216,-0.206,96.000
'0:18.830',-0.040,-0.046,0.228,-0.215,96.000
'0:18.840',-0.035,-0.045,0.240,-0.223,96.000
'0:18.850',-0.060,-0.045,0.252,-0.232,96.000
'0:18.860',-0.035,-0.045,0.262,-0.240,96.000
'0:18.870',-0.075,-0.045,0.273,-0.247,96.000
'0:18.880',-0.055,-0.046,0.283,-0.255,96.000
'0:18.890',-0.060,-0.046,0.294,-0.263,96.000
'0:18.900',-0.070,-0.047,0.304,-0.271,96.000
'0:18.910',-0.045,-0.046,0.315,-0.278,96.000
'0:18.920',0.005,-0.046,0.326,-0.285,96.000
'0:18.930',0.045,-0.045,0.337,-0.292,96.000
'0:18.940',0.045,-0.045,0.347,-0.300,96.000
'0:18.950',0.055,-0.044,0.358,-0.307,96.000
'0:18.960',0.110,-0.044,0.366,-0.313,96.000
'0:18.970',0.085,-0.044,0.375,-0.319,96.000
'0:18.980',0.070,-0.044,0.383,-0.326,96.000
'0:18.990',-0.035,-0.043,0.392,-0.332,96.000
'0:19.000',-0.010,-0.043,0.400,-0.338,96.000
'0:19.010',-0.100,-0.044,0.409,-0.344,96.000
'0:19.020',-0.110,-0.044,0.418,-0.350,96.000
'0:19.030',-0.125,-0.045,0.427,-0.356,96.000
'0:19.040',-0.095,-0.045,0.436,-0.361,96.000
'0:19.050',-0.130,-0.046,0.445,-0.367,96.000
'0:19.060',-0.115,-0.045,0.454,-0.372,96.000
'0:19.070',-0.135,-0.044,0.463,-0.378,96.000
'0:19.080',-0.075,-0.043,0.471,-0.383,96.000
'0:19.090',-0.035,-0.042,0.480,-0.389,96.000
'0:19.100',0.215,-0.041,0.490,-0.394,96.000
'0:19.110',0.570,-0.040,0.497,-0.399,96.000
'0:19.120',-0.325,-0.039,0.505,-0.403,96.000
'0:19.130',-0.325,-0.039,0.513,-0.408,96.000
'0:19.140',-0.185,-0.038,0.520,-0.413,96.000
'0:19.150',-0.120,-0.037,0.528,-0.417,96.000
'0:19.160',-0.115,-0.038,0.536,-0.421,96.000
'0:19.170',-0.130,-0.038,0.544,-0.426,96.000
'0:19.180',-0.095,-0.039,0.552,-0.430,96.000
'0:19.190',-0.120,-0.039,0.560,-0.434,96.000
'0:19.200',-0.085,-0.040,0.568,-0.439,96.000
'0:19.210',-0.105,-0.040,0.576,-0.442,96.000
'0:19.220',-0.085,-0.040,0.584,-0.446,96.000
'0:19.230',-0.100,-0.040,0.592,-0.450,96.000
'0:19.240',-0.070,-0.039,0.601,-0.454,96.000
'0:19.250',-0.065,-0.039,0.609,-0.458,96.000
'0:19.260',-0.040,-0.039,0.618,-0.461,96.000
'0:19.270',-0.070,-0.038,0.626,-0.465,96.000
'0:19.280',-0.025,-0.037,0.635,-0.468,96.000
'0:19.290',-0.010,-0.037,0.643,-0.471,96.000
'0:19.300',0.025,-0.036,0.652,-0.475,96.000
'0:19.310',0.050,-0.036,0.655,-0.478,96.000
'0:19.320',0.075,-0.036,0.658,-0.481,96.000
'0:19.330',0.105,-0.036,0.662,-0.484,96.000
'0:19.340',0.180,-0.036,0.665,-0.488,96.000
'0:19.350',0.185,-0.036,0.669,-0.491,96.000
'0:19.360',0.230,-0.036,0.673,-0.494,96.000
'0:19.370',0.255,-0.036,0.677,-0.497,96.000
'0:19.380',0.270,-0.036,0.682,-0.500,96.000
'0:19.390',0.290,-0.035,0.686,-0.503,96.000
'0:19.400',0.280,-0.035,0.691,-0.506,96.000
'0:19.410',0.255,-0.034,0.693,-0.508,96.000
'0:19.420',0.175,-0.034,0.696,-0.511,96.000
'0:19.430',0.095,-0.033,0.699,-0.514,96.000
'0:19.440',0.050,-0.032,0.701,-0.517,96.000
'0:19.450',0.005,-0.032,0.704,-0.519,96.000
'0:19.460',-0.015,-0.031,0.698,-0.521,96.000
'0:19.470',-0.045,-0.030,0.691,-0.523,96.000
'0:19.480',-0.045,-0.030,0.685,-0.525,96.000
'0:19.490',-0.055,-0.029,0.678,-0.527,96.000
'0:19.500',-0.045,-0.028,0.672,-0.529,96.000
'0:19.510',-0.060,-0.029,0.670,-0.530,96.000
'0:19.520',-0.030,-0.029,0.667,-0.531,96.000
'0:19.530',-0.045,-0.030,0.665,-0.532,96.000
'0:19.540',-0.035,-0.030,0.663,-0.532,96.000
'0:19.550',-0.035,-0.031,0.661,-0.533,96.000
'0:19.560',-0.050,-0.031,0.659,-0.531,96.000
'0:19.570',-0.020,-0.032,0.657,-0.529,96.000
'0:19.580',-0.055,-0.032,0.655,-0.527,96.000
'0:19.590',-0.040,-0.033,0.652,-0.526,96.000
'0:19.600',-0.040,-0.033,0.650,-0.524,96.000
'0:19.610',-0.075,-0.033,0.643,-0.517,96.000
'0:19.620',-0.050,-0.034,0.636,-0.511,96.000
'0:19.630',-0.065,-0.034,0.629,-0.505,96.000
'0:19.640',-0.070,-0.034,0.622,-0.499,96.000
'0:19.650',-0.035,-0.034,0.615,-0.492,96.000
'0:19.660',0.020,-0.035,0.607,-0.483,96.000
'0:19.670',0.035,-0.036,0.600,-0.474,96.000
'0:19.680',0.080,-0.037,0.592,-0.465,96.000
'0:19.690',0.075,-0.038,0.584,-0.455,96.000
'0:19.700',0.120,-0.039,0.576,-0.446,96.000
'0:19.710',0.085,-0.039,0.566,-0.435,96.000
'0:19.720',0.015,-0.038,0.555,-0.424,96.000
'0:19.730',-0.025,-0.038,0.544,-0.413,96.000
'0:19.740',-0.045,-0.037,0.533,-0.401,96.000
'0:19.750',-0.105,-0.037,0.522,-0.390,96.000
'0:19.760',-0.105,-0.037,0.511,-0.378,96.000
'0:19.770',-0.115,-0.037,0.500,-0.365,96.000
'0:19.780',-0.105,-0.037,0.488,-0.353,96.000
'0:19.790',-0.130,-0.037,0.477,-0.340,96.000
'0:19.800',-0.115,-0.037,0.466,-0.328,96.000
'0:19.810',-0.120,-0.038,0.455,-0.315,96.000
'0:19.820',-0.070,-0.039,0.445,-0.302,96.000
'0:19.830',0.050,-0.040,0.434,-0.290,96.000
'0:19.840',0.355,-0.040,0.424,-0.277,96.000
'0:19.850',0.365,-0.041,0.413,-0.264,96.000
'0:19.860',-0.450,-0.041,0.402,-0.251,96.000
'0:19.870',-0.330,-0.041,0.391,-0.238,96.000
'0:19.880',-0.140,-0.042,0.380,-0.225,96.000
'0:19.890',-0.080,-0.042,0.370,-0.212,96.000
'0:19.900',-0.085,-0.042,0.359,-0.199,96.000
'0:19.910',-0.120,-0.042,0.348,-0.186,96.000
'0:19.920',-0.110,-0.043,0.337,-0.173,96.000
'0:19.930',-0.120,-0.043,0.326,-0.161,96.000
'0:19.940',-0.095,-0.043,0.315,-0.148,96.000
'0:19.950',-0.110,-0.044,0.304,-0.135,96.000
'0:19.960',-0.085,-0.044,0.292,-0.122,96.000
'0:19.970',-0.080,-0.045,0.281,-0.110,96.000
'0:19.980',-0.065,-0.045,0.269,-0.097,96.000
'0:19.990',-0.070,-0.045,0.258,-0.085,96.000
'0:20.000',-0.035,-0.046,0.246,-0.072,96.000
'0:20.010',-0.035,-0.046,0.233,-0.060,96.000
'0:20.020',-0.005,-0.047,0.219,-0.048,96.000
'0:20.030',0.010,-0.047,0.206,-0.036,96.000
'0:20.040',0.050,-0.048,0.192,-0.024,96.000
'0:20.050',0.060,-0.048,0.179,-0.012,96.000
'0:20.060',0.095,-0.049,0.165,-0.001,96.000
'0:20.070',0.125,-0.049,0.151,0.011,96.000
'0:20.080',0.175,-0.050,0.138,0.022,96.000
'0:20.090',0.200,-0.050,0.124,0.033,96.000
'0:20.100',0.245,-0.050,0.110,0.045,96.000
'0:20.110',0.260,-0.049,0.097,0.055,96.000
'0:20.120',0.280,-0.048,0.084,0.066,96.000
'0:20.130',0.290,-0.046,0.071,0.077,96.000
'0:20.140',0.270,-0.045,0.058,0.088,96.000
'0:20.150',0.215,-0.043,0.045,0.098,96.000
'0:20.160',0.155,-0.043,0.036,0.109,96.000
'0:20.170',0.080,-0.042,0.028,0.119,96.000
'0:20.180',0.025,-0.042,0.019,0.129,96.000
'0:20.190',-0.005,-0.041,0.010,0.139,96.000
'0:20.200',-0.010,-0.041,0.001,0.149,96.000
'0:20.210',-0.025,-0.041,-0.003,0.159,96.000
'0:20.220',-0.050,-0.042,-0.007,0.168,96.000
'0:20.230',-0.040,-0.042,-0.010,0.178,96.000
'0:20.240',-0.040,-0.042,-0.014,0.188,96.000
'0:20.250',-0.035,-0.042,-0.018,0.197,96.000
'0:20.260',-0.045,-0.042,-0.022,0.206,96.000
'0:20.270',-0.040,-0.042,-0.025,0.215,96.000
'0:20.280',-0.050,-0.042,-0.028,0.224,96.000
'0:20.290',-0.025,-0.042,-0.032,0.233,96.000
'0:20.300',-0.045,-0.042,-0.035,0.243,96.000
'0:20.310',-0.020,-0.043,-0.038,0.251,96.000
'0:20.320',-0.040,-0.044,-0.041,0.260,96.000
'0:20.330',-0.050,-0.045,-0.043,0.268,96.000
'0:20.340',-0.060,-0.046,-0.046,0.277,96.000
'0:20.350',-0.045,-0.047,-0.049,0.285,96.000
'0:20.360',-0.070,-0.046,-0.052,0.293,96.000
'0:20.370',-0.060,-0.046,-0.055,0.301,96.000
'0:20.380',-0.045,-0.046,-0.059,0.309,96.000
'0:20.390',0.030,-0.046,-0.062,0.317,96.000
'0:20.400',0.050,-0.046,-0.065,0.324,96.000
'0:20.410',0.065,-0.045,-0.073,0.331,96.000
'0:20.420',0.075,-0.044,-0.082,0.339,96.000
'0:20.430',0.115,-0.044,-0.090,0.346,96.000
'0:20.440',0.085,-0.043,-0.098,0.353,96.000
'0:20.450',0.035,-0.042,-0.106,0.360,96.000
'0:20.460',-0.010,-0.043,-0.117,0.366,96.000
'0:20.470',-0.015,-0.043,-0.128,0.372,96.000
'0:20.480',-0.105,-0.044,-0.139,0.378,96.000
'0:20.490',-0.105,-0.044,-0.150,0.385,96.000
'0:20.500',-0.125,-0.045,-0.161,0.391,96.000
'0:20.510',-0.095,-0.046,-0.171,0.397,96.000
'0:20.520',-0.120,-0.047,-0.181,0.402,96.000
'0:20.530',-0.100,-0.048,-0.191,0.408,96.000
'0:20.540',-0.135,-0.049,-0.201,0.413,96.000
'0:20.550',-0.090,-0.050,-0.211,0.419,96.000
'0:20.560',-0.050,-0.050,-0.217,0.424,96.000
'0:20.570',0.210,-0.051,-0.224,0.429,96.000
'0:20.580',0.425,-0.051,-0.231,0.433,96.000
'0:20.590',-0.480,-0.051,-0.238,0.438,96.000
'0:20.600',-0.390,-0.052,-0.245,0.443,96.000
'0:20.610',-0.190,-0.051,-0.248,0.447,96.000
'0:20.620',-0.065,-0.051,-0.252,0.450,96.000
'0:20.630',-0.090,-0.050,-0.255,0.454,96.000
'0:20.640',-0.125,-0.050,-0.259,0.458,96.000
'0:20.650',-0.095,-0.049,-0.262,0.462,96.000
'0:20.660',-0.120,-0.050,-0.265,0.464,96.000
'0:20.670',-0.095,-0.050,-0.267,0.467,96.000
'0:20.680',-0.100,-0.050,-0.270,0.470,96.000
'0:20.690',-0.085,-0.051,-0.272,0.473,96.000
'0:20.700',-0.100,-0.051,-0.275,0.476,96.000
'0:20.710',-0.075,-0.051,-0.279,0.478,96.000
'0:20.720',-0.065,-0.050,-0.283,0.480,96.000
'0:20.730',-0.030,-0.050,-0.287,0.482,96.000
'0:20.740',-0.030,-0.050,-0.291,0.484,96.000
'0:20.750',0.000,-0.050,-0.295,0.486,96.000
'0:20.760',-0.005,-0.050,-0.299,0.488,96.000
'0:20.770',0.020,-0.050,-0.302,0.490,96.000
'0:20.780',0.050,-0.051,-0.305,0.492,96.000
'0:20.790',0.095,-0.051,-0.309,0.493,96.000
'0:20.800',0.120,-0.052,-0.312,0.495,96.000
'0:20.810',0.165,-0.053,-0.312,0.496,96.000
'0:20.820',0.195,-0.054,-0.313,0.498,96.000
'0:20.830',0.240,-0.055,-0.313,0.499,96.000
'0:20.840',0.250,-0.057,-0.314,0.501,96.000
'0:20.850',0.265,-0.058,-0.314,0.502,96.000
'0:20.860',0.255,-0.058,-0.315,0.503,96.000
'0:20.870',0.265,-0.058,-0.316,0.504,96.000
'0:20.880',0.235,-0.059,-0.317,0.505,96.000
'0:20.890',0.165,-0.059,-0.317,0.506,96.000
'0:20.900',0.085,-0.059,-0.318,0.507,96.000
'0:20.910',0.035,-0.059,-0.319,0.508,96.000
'0:20.920',0.000,-0.060,-0.321,0.509,96.000
'0:20.930',-0.015,-0.060,-0.322,0.510,96.000
'0:20.940',-0.025,-0.060,-0.323,0.511,96.000
'0:20.950',-0.035,-0.061,-0.324,0.512,96.000
'0:20.960',-0.035,-0.061,-0.324,0.512,96.000
'0:20.970',-0.045,-0.061,-0.325,0.513,96.000
'0:20.980',-0.045,-0.061,-0.325,0.514,96.000
'0:20.990',-0.035,-0.061,-0.325,0.514,96.000
'0:21.000',-0.035,-0.061,-0.325,0.515,96.000
'0:21.010',-0.025,-0.062,-0.325,0.515,96.000
'0:21.020',-0.020,-0.063,-0.324,0.516,96.000
'0:21.030',-0.030,-0.064,-0.323,0.516,96.000
'0:21.040',-0.035,-0.065,-0.323,0.517,96.000
'0:21.050',-0.035,-0.067,-0.322,0.517,96.000
'0:21.060',-0.045,-0.067,-0.321,0.517,96.000
'0:21.070',-0.025,-0.068,-0.320,0.517,96.000
'0:21.080',-0.030,-0.069,-0.318,0.517,96.000
'0:21.090',-0.050,-0.070,-0.317,0.517,96.000
'0:21.100',-0.025,-0.070,-0.316,0.518,96.000
'0:21.110',-0.030,-0.070,-0.310,0.517,96.000
'0:21.120',0.015,-0.070,-0.305,0.516,96.000
'0:21.130',0.060,-0.070,-0.299,0.515,96.000
'0:21.140',0.075,-0.070,-0.293,0.514,96.000
'0:21.150',0.060,-0.070,-0.288,0.513,96.000
'0:21.160',0.120,-0.070,-0.280,0.509,96.000
'0:21.170',0.100,-0.070,-0.272,0.504,96.000
'0:21.180',0.065,-0.070,-0.264,0.499,96.000
'0:21.190',0.000,-0.070,-0.256,0.494,96.000
'0:21.200',0.005,-0.070,-0.248,0.490,96.000
'0:21.210',-0.075,-0.069,-0.233,0.479,96.000
'0:21.220',-0.100,-0.069,-0.217,0.469,96.000
'0:21.230',-0.115,-0.068,-0.202,0.459,96.000
'0:21.240',-0.100,-0.068,-0.187,0.449,96.000
'0:21.250',-0.105,-0.067,-0.172,0.439,96.000
'0:21.260',-0.100,-0.067,-0.156,0.425,96.000
'0:21.270',-0.105,-0.068,-0.139,0.411,96.000
'0:21.280',-0.085,-0.068,-0.123,0.397,96.000
'0:21.290',-0.045,-0.068,-0.107,0.383,96.000
'0:21.300',0.170,-0.068,-0.091,0.369,96.000
'0:21.310',0.445,-0.068,-0.086,0.353,96.000
'0:21.320',-0.225,-0.067,-0.082,0.338,96.000
'0:21.330',-0.410,-0.067,-0.077,0.322,96.000
'0:21.340',-0.255,-0.067,-0.073,0.307,96.000
'0:21.350',-0.140,-0.066,-0.069,0.291,96.000
'0:21.360',-0.090,-0.066,-0.066,0.276,96.000
'0:21.370',-0.085,-0.066,-0.064,0.260,96.000
'0:21.380',-0.100,-0.066,-0.062,0.245,96.000
'0:21.390',-0.095,-0.066,-0.059,0.230,96.000
'0:21.400',-0.060,-0.065,-0.057,0.214,96.000
'0:21.410',-0.090,-0.065,-0.054,0.199,96.000
'0:21.420',-0.070,-0.064,-0.051,0.185,96.000
'0:21.430',-0.060,-0.064,-0.047,0.170,96.000
'0:21.440',-0.060,-0.063,-0.044,0.155,96.000
'0:21.450',-0.045,-0.063,-0.041,0.140,96.000
'0:21.460',-0.015,-0.062,-0.038,0.126,96.000
'0:21.470',-0.020,-0.061,-0.035,0.113,96.000
'0:21.480',0.000,-0.061,-0.033,0.099,96.000
'0:21.490',0.020,-0.060,-0.030,0.085,96.000
'0:21.500',0.045,-0.059,-0.027,0.071,96.000
'0:21.510',0.050,-0.059,-0.024,0.058,96.000
'0:21.520',0.100,-0.059,-0.020,0.045,96.000
'0:21.530',0.130,-0.059,-0.017,0.032,96.000
'0:21.540',0.185,-0.059,-0.014,0.019,96.000
'0:21.550',0.200,-0.059,-0.010,0.006,96.000
'0:21.560',0.235,-0.059,-0.005,-0.006,96.000
'0:21.570',0.255,-0.058,0.001,-0.018,96.000
'0:21.580',0.280,-0.058,0.007,-0.029,96.000
'0:21.590',0.315,-0.057,0.013,-0.042,96.000
'0:21.600',0.300,-0.057,0.018,-0.054,96.000
'0:21.610',0.260,-0.056,0.028,-0.064,96.000
'0:21.620',0.215,-0.056,0.037,-0.075,96.000
'0:21.630',0.125,-0.055,0.047,-0.085,96.000
'0:21.640',0.080,-0.055,0.056,-0.096,96.000
'0:21.650',0.030,-0.055,0.066,-0.107,96.000
'0:21.660',0.000,-0.055,0.075,-0.116,96.000
'0:21.670',-0.040,-0.054,0.084,-0.125,96.000
'0:21.680',-0.045,-0.054,0.093,-0.134,96.000
'0:21.690',-0.040,-0.054,0.102,-0.143,96.000
'0:21.700',-0.030,-0.054,0.111,-0.153,96.000
'0:21.710',-0.005,-0.054,0.120,-0.161,96.000
'0:21.720',-0.045,-0.054,0.128,-0.169,96.000
'0:21.730',-0.035,-0.054,0.137,-0.177,96.000
'0:21.740',-0.035,-0.054,0.145,-0.185,96.000
'0:21.750',-0.020,-0.053,0.154,-0.193,96.000
'0:21.760',-0.020,-0.053,0.165,-0.200,96.000
'0:21.770',0.000,-0.053,0.177,-0.207,96.000
'0:21.780',-0.060,-0.052,0.188,-0.214,96.000
'0:21.790',-0.035,-0.052,0.199,-0.222,96.000
'0:21.800',-0.045,-0.051,0.211,-0.229,96.000
'0:21.810',-0.045,-0.052,0.222,-0.235,96.000
'0:21.820',-0.065,-0.052,0.233,-0.242,96.000
'0:21.830',-0.020,-0.052,0.244,-0.248,96.000
'0:21.840',-0.015,-0.052,0.255,-0.255,96.000
'0:21.850',0.000,-0.053,0.266,-0.262,96.000
'0:21.860',0.040,-0.052,0.275,-0.268,96.000
'0:21.870',0.065,-0.051,0.283,-0.274,96.000
'0:21.880',0.060,-0.051,0.292,-0.280,96.000
'0:21.890',0.145,-0.051,0.301,-0.287,96.000
'0:21.900',0.085,-0.050,0.310,-0.293,96.000
'0:21.910',0.035,-0.050,0.320,-0.298,96.000
'0:21.920',-0.005,-0.050,0.329,-0.304,96.000
'0:21.930',0.000,-0.050,0.338,-0.309,96.000
'0:21.940',-0.085,-0.050,0.347,-0.315,96.000
'0:21.950',-0.100,-0.050,0.356,-0.320,96.000
'0:21.960',-0.135,-0.050,0.363,-0.325,96.000
'0:21.970',-0.100,-0.051,0.369,-0.330,96.000
'0:21.980',-0.115,-0.051,0.375,-0.335,96.000
'0:21.990',-0.115,-0.052,0.382,-0.341,96.000
'0:22.000',-0.125,-0.052,0.388,-0.346,96.000
'0:22.010',-0.070,-0.052,0.394,-0.350,96.000
'0:22.020',-0.045,-0.052,0.399,-0.355,96.000
'0:22.030',0.255,-0.052,0.405,-0.360,96.000
'0:22.040',0.585,-0.051,0.410,-0.365,96.000
'0:22.050',-0.345,-0.051,0.416,-0.370,96.000
'0:22.060',-0.335,-0.052,0.422,-0.374,96.000
'0:22.070',-0.190,-0.052,0.428,-0.379,96.000
'0:22.080',-0.100,-0.053,0.434,-0.383,96.000
'0:22.090',-0.095,-0.053,0.440,-0.388,96.000
'0:22.100',-0.115,-0.053,0.446,-0.392,96.000
'0:22.110',-0.080,-0.054,0.451,-0.396,96.000
'0:22.120',-0.120,-0.054,0.457,-0.401,96.000
'0:22.130',-0.115,-0.055,0.463,-0.405,96.000
'0:22.140',-0.105,-0.055,0.469,-0.409,96.000
'0:22.150',-0.065,-0.056,0.474,-0.414,96.000
'0:22.160',-0.080,-0.056,0.478,-0.418,96.000
'0:22.170',-0.055,-0.056,0.481,-0.422,96.000
'0:22.180',-0.090,-0.057,0.484,-0.426,96.000
'0:22.190',-0.045,-0.057,0.487,-0.430,96.000
'0:22.200',-0.020,-0.058,0.490,-0.434,96.000
'0:22.210',0.000,-0.057,0.487,-0.438,96.000
'0:22.220',0.000,-0.056,0.483,-0.442,96.000
'0:22.230',0.045,-0.056,0.480,-0.445,96.000
'0:22.240',0.050,-0.055,0.476,-0.449,96.000
'0:22.250',0.110,-0.054,0.473,-0.452,96.000
'0:22.260',0.130,-0.053,0.467,-0.455,96.000
'0:22.270',0.180,-0.052,0.461,-0.458,96.000
'0:22.280',0.215,-0.051,0.456,-0.461,96.000
'0:22.290',0.250,-0.050,0.450,-0.463,96.000
'0:22.300',0.250,-0.049,0.444,-0.466,96.000
'0:22.310',0.270,-0.049,0.437,-0.467,96.000
'0:22.320',0.285,-0.049,0.430,-0.468,96.000
'0:22.330',0.275,-0.049,0.423,-0.468,96.000
'0:22.340',0.250,-0.049,0.416,-0.469,96.000
'0:22.350',0.170,-0.049,0.408,-0.470,96.000
'0:22.360',0.095,-0.050,0.401,-0.466,96.000
'0:22.370',0.045,-0.050,0.394,-0.463,96.000
'0:22.380',0.000,-0.050,0.387,-0.460,96.000
'0:22.390',-0.045,-0.050,0.380,-0.456,96.000
'0:22.400',-0.050,-0.050,0.373,-0.453,96.000
'0:22.410',-0.045,-0.050,0.367,-0.446,96.000
'0:22.420',-0.030,-0.050,0.361,-0.439,96.000
'0:22.430',-0.035,-0.050,0.355,-0.432,96.000
'0:22.440',-0.045,-0.050,0.349,-0.425,96.000
'0:22.450',-0.025,-0.050,0.343,-0.418,96.000
'0:22.460',-0.030,-0.050,0.336,-0.409,96.000
'0:22.470',-0.040,-0.050,0.329,-0.400,96.000
'0:22.480',-0.035,-0.050,0.322,-0.390,96.000
'0:22.490',-0.045,-0.050,0.315,-0.381,96.000
'0:22.500',-0.025,-0.050,0.309,-0.372,96.000
'0:22.510',-0.040,-0.050,0.300,-0.362,96.000
'0:22.520',-0.060,-0.050,0.292,-0.352,96.000
'0:22.530',-0.055,-0.050,0.284,-0.342,96.000
'0:22.540',-0.045,-0.050,0.276,-0.332,96.000
'0:22.550',-0.055,-0.050,0.268,-0.322,96.000
'0:22.560',-0.065,-0.051,0.259,-0.312,96.000
'0:22.570',-0.060,-0.051,0.249,-0.301,96.000
'0:22.580',-0.015,-0.051,0.239,-0.291,96.000
'0:22.590',0.040,-0.052,0.229,-0.281,96.000
'0:22.600',0.060,-0.052,0.219,-0.270,96.000
'0:22.610',0.055,-0.053,0.208,-0.259,96.000
'0:22.620',0.115,-0.054,0.198,-0.249,96.000
'0:22.630',0.090,-0.055,0.187,-0.238,96.000
'0:22.640',0.065,-0.056,0.176,-0.227,96.000
'0:22.650',0.000,-0.057,0.166,-0.217,96.000
'0:22.660',0.010,-0.057,0.156,-0.206,96.000
'0:22.670',-0.090,-0.057,0.146,-0.195,96.000
'0:22.680',-0.110,-0.057,0.136,-0.184,96.000
'0:22.690',-0.120,-0.057,0.126,-0.174,96.000
'0:22.700',-0.100,-0.057,0.116,-0.163,96.000
'0:22.710',-0.120,-0.056,0.107,-0.152,96.000
'0:22.720',-0.110,-0.055,0.097,-0.141,96.000
'0:22.730',-0.105,-0.054,0.088,-0.130,96.000
'0:22.740',-0.100,-0.053,0.078,-0.119,96.000
'0:22.750',-0.060,-0.053,0.068,-0.109,96.000
'0:22.760',0.210,-0.053,0.059,-0.098,96.000
'0:22.770',0.535,-0.053,0.050,-0.087,96.000
'0:22.780',-0.175,-0.053,0.040,-0.076,96.000
'0:22.790',-0.385,-0.053,0.031,-0.066,96.000
'0:22.800',-0.225,-0.053,0.021,-0.055,96.000
'0:22.810',-0.110,-0.053,0.015,-0.045,96.000
'0:22.820',-0.090,-0.054,0.009,-0.034,96.000
'0:22.830',-0.105,-0.054,0.003,-0.024,96.000
'0:22.840',-0.105,-0.055,-0.003,-0.014,96.000
'0:22.850',-0.115,-0.056,-0.009,-0.004,96.000
'0:22.860',-0.090,-0.056,-0.012,0.006,96.000
'0:22.870',-0.105,-0.056,-0.016,0.016,96.000
'0:22.880',-0.095,-0.057,-0.019,0.026,96.000
'0:22.890',-0.075,-0.057,-0.022,0.036,96.000
'0:22.900',-0.060,-0.057,-0.026,0.046,96.000
'0:22.910',-0.075,-0.057,-0.028,0.055,96.000
'0:22.920',-0.040,-0.057,-0.031,0.065,96.000
'0:22.930',-0.035,-0.057,-0.034,0.074,96.000
'0:22.940',-0.015,-0.057,-0.037,0.084,96.000
'0:22.950',0.000,-0.057,-0.039,0.093,96.000
'0:22.960',0.025,-0.058,-0.042,0.102,96.000
'0:22.970',0.050,-0.058,-0.045,0.111,96.000
'0:22.980',0.085,-0.059,-0.048,0.120,96.000
'0:22.990',0.110,-0.059,-0.051,0.129,96.000
'0:23.000',0.165,-0.060,-0.054,0.138,96.000
'0:23.010',0.180,-0.060,-0.056,0.146,96.000
'0:23.020',0.230,-0.061,-0.059,0.155,96.000
'0:23.030',0.250,-0.061,-0.061,0.163,96.000
'0:23.040',0.260,-0.062,-0.064,0.172,96.000
'0:23.050',0.285,-0.062,-0.066,0.180,96.000
'0:23.060',0.270,-0.062,-0.069,0.188,96.000
'0:23.070',0.235,-0.062,-0.071,0.196,96.000
'0:23.080',0.175,-0.062,-0.074,0.204,96.000
'0:23.090',0.125,-0.061,-0.077,0.212,96.000
'0:23.100',0.075,-0.061,-0.080,0.220,96.000
'0:23.110',0.015,-0.061,-0.084,0.227,96.000
'0:23.120',-0.020,-0.061,-0.089,0.234,96.000
'0:23.130',-0.030,-0.060,-0.094,0.242,96.000
'0:23.140',-0.025,-0.060,-0.098,0.249,96.000
'0:23.150',-0.025,-0.060,-0.103,0.256,96.000
'0:23.160',-0.040,-0.059,-0.113,0.263,96.000
'0:23.170',-0.035,-0.059,-0.123,0.270,96.000
'0:23.180',-0.045,-0.059,-0.134,0.277,96.000
'0:23.190',-0.035,-0.059,-0.144,0.284,96.000
'0:23.200',-0.035,-0.059,-0.155,0.290,96.000
'0:23.210',-0.025,-0.060,-0.168,0.297,96.000
'0:23.220',-0.030,-0.061,-0.181,0.303,96.000
'0:23.230',-0.025,-0.062,-0.194,0.310,96.000
'0:23.240',-0.035,-0.063,-0.207,0.316,96.000
'0:23.250',-0.030,-0.064,-0.220,0.323,96.000
'0:23.260',-0.045,-0.063,-0.228,0.329,96.000
'0:23.270',-0.060,-0.063,-0.237,0.335,96.000
'0:23.280',-0.055,-0.062,-0.246,0.341,96.000
'0:23.290',-0.055,-0.061,-0.255,0.346,96.000
'0:23.300',-0.045,-0.061,-0.263,0.352,96.000
'0:23.310',0.005,-0.060,-0.272,0.358,96.000
'0:23.320',0.040,-0.059,-0.280,0.363,96.000
'0:23.330',0.050,-0.059,-0.288,0.368,96.000
'0:23.340',0.065,-0.058,-0.297,0.374,96.000
'0:23.350',0.120,-0.057,-0.305,0.379,96.000
'0:23.360',0.075,-0.059,-0.311,0.384,96.000
'0:23.370',0.045,-0.060,-0.317,0.388,96.000
'0:23.380',-0.020,-0.061,-0.323,0.393,96.000
'0:23.390',-0.015,-0.063,-0.328,0.398,96.000
'0:23.400',-0.090,-0.064,-0.334,0.403,96.000
'0:23.410',-0.115,-0.065,-0.338,0.407,96.000
'0:23.420',-0.125,-0.065,-0.342,0.411,96.000
'0:23.430',-0.105,-0.065,-0.345,0.415,96.000
'0:23.440',-0.145,-0.065,-0.349,0.419,96.000
'0:23.450',-0.120,-0.065,-0.353,0.423,96.000
'0:23.460',-0.135,-0.065,-0.357,0.426,96.000
'0:23.470',-0.105,-0.066,-0.361,0.430,96.000
'0:23.480',-0.085,-0.066,-0.365,0.433,96.000
'0:23.490',0.165,-0.066,-0.369,0.436,96.000
'0:23.500',0.465,-0.067,-0.373,0.440,96.000
'0:23.510',-0.340,-0.067,-0.376,0.442,96.000
'0:23.520',-0.405,-0.067,-0.379,0.445,96.000
'0:23.530',-0.220,-0.068,-0.382,0.448,96.000
'0:23.540',-0.105,-0.068,-0.384,0.450,96.000
'0:23.550',-0.090,-0.068,-0.387,0.453,96.000
'0:23.560',-0.125,-0.069,-0.390,0.455,96.000
'0:23.570',-0.110,-0.069,-0.392,0.458,96.000
'0:23.580',-0.125,-0.069,-0.395,0.460,96.000
'0:23.590',-0.110,-0.069,-0.397,0.462,96.000
'0:23.600',-0.125,-0.070,-0.400,0.465,96.000
'0:23.610',-0.090,-0.071,-0.403,0.467,96.000
'0:23.620',-0.095,-0.072,-0.406,0.468,96.000
'0:23.630',-0.070,-0.073,-0.408,0.470,96.000
'0:23.640',-0.070,-0.074,-0.411,0.472,96.000
'0:23.650',-0.050,-0.075,-0.414,0.474,96.000
'0:23.660',-0.040,-0.074,-0.416,0.476,96.000
'0:23.670',-0.015,-0.074,-0.419,0.477,96.000
'0:23.680',-0.005,-0.074,-0.422,0.479,96.000
'0:23.690',0.015,-0.073,-0.424,0.481,96.000
'0:23.700',0.040,-0.073,-0.427,0.482,96.000
'0:23.710',0.085,-0.073,-0.431,0.483,96.000
'0:23.720',0.115,-0.072,-0.434,0.485,96.000
'0:23.730',0.165,-0.072,-0.438,0.486,96.000
'0:23.740',0.190,-0.071,-0.442,0.488,96.000
'0:23.750',0.215,-0.071,-0.445,0.489,96.000
'0:23.760',0.230,-0.071,-0.448,0.490,96.000
'0:23.770',0.265,-0.071,-0.450,0.491,96.000
'0:23.780',0.275,-0.071,-0.452,0.492,96.000
'0:23.790',0.275,-0.071,-0.454,0.493,96.000
'0:23.800',0.235,-0.071,-0.456,0.494,96.000
'0:23.810',0.165,-0.071,-0.456,0.495,96.000
'0:23.820',0.090,-0.071,-0.456,0.495,96.000
'0:23.830',0.040,-0.071,-0.456,0.496,96.000
'0:23.840',-0.010,-0.071,-0.455,0.497,96.000
'0:23.850',-0.035,-0.071,-0.455,0.498,96.000
'0:23.860',-0.050,-0.072,-0.454,0.498,96.000
'0:23.870',-0.055,-0.072,-0.453,0.499,96.000
'0:23.880',-0.045,-0.073,-0.453,0.499,96.000
'0:23.890',-0.055,-0.074,-0.452,0.500,96.000
'0:23.900',-0.055,-0.075,-0.451,0.501,96.000
'0:23.910',-0.050,-0.075,-0.450,0.501,96.000
'0:23.920',-0.060,-0.076,-0.450,0.501,96.000
'0:23.930',-0.055,-0.077,-0.449,0.502,96.000
'0:23.940',-0.050,-0.077,-0.449,0.502,96.000
'0:23.950',-0.035,-0.078,-0.448,0.502,96.000
'0:23.960',-0.045,-0.078,-0.448,0.502,96.000
'0:23.970',-0.050,-0.078,-0.448,0.502,96.000
'0:23.980',-0.065,-0.078,-0.448,0.502,96.000
'0:23.990',-0.050,-0.079,-0.448,0.502,96.000
'0:24.000',-0.055,-0.079,-0.448,0.502,96.000
'0:24.010',-0.055,-0.079,-0.448,0.502,96.000
'0:24.020',-0.060,-0.079,-0.447,0.502,96.000
'0:24.030',-0.070,-0.079,-0.446,0.501,96.000
'0:24.040',-0.045,-0.078,-0.446,0.501,96.000
'0:24.050',0.010,-0.078,-0.445,0.501,96.000
'0:24.060',0.025,-0.079,-0.444,0.500,96.000
'0:24.070',0.055,-0.079,-0.444,0.499,96.000
'0:24.080',0.065,-0.080,-0.443,0.499,96.000
'0:24.090',0.125,-0.080,-0.442,0.498,96.000
'0:24.100',0.075,-0.081,-0.442,0.497,96.000
'0:24.110',0.030,-0.081,-0.439,0.495,96.000
'0:24.120',-0.025,-0.081,-0.437,0.493,96.000
'0:24.130',-0.025,-0.081,-0.435,0.491,96.000
'0:24.140',-0.095,-0.081,-0.432,0.489,96.000
'0:24.150',-0.100,-0.082,-0.430,0.487,96.000
'0:24.160',-0.140,-0.081,-0.429,0.482,96.000
'0:24.170',-0.100,-0.081,-0.427,0.477,96.000
'0:24.180',-0.125,-0.080,-0.426,0.472,96.000
'0:24.190',-0.105,-0.080,-0.424,0.466,96.000
'0:24.200',-0.130,-0.079,-0.423,0.461,96.000
'0:24.210',-0.090,-0.079,-0.421,0.452,96.000
'0:24.220',-0.080,-0.079,-0.419,0.444,96.000
'0:24.230',0.165,-0.079,-0.417,0.435,96.000
'0:24.240',0.480,-0.079,-0.415,0.426,96.000
'0:24.250',-0.380,-0.079,-0.413,0.418,96.000
'0:24.260',-0.365,-0.079,-0.409,0.407,96.000
'0:24.270',-0.210,-0.079,-0.405,0.396,96.000
'0:24.280',-0.100,-0.079,-0.401,0.385,96.000
'0:24.290',-0.100,-0.079,-0.396,0.374,96.000
'0:24.300',-0.130,-0.079,-0.392,0.363,96.000
'0:24.310',-0.095,-0.079,-0.389,0.351,96.000
'0:24.320',-0.095,-0.079,-0.385,0.339,96.000
'0:24.330',-0.070,-0.079,-0.382,0.327,96.000
'0:24.340',-0.105,-0.079,-0.378,0.315,96.000
'0:24.350',-0.075,-0.079,-0.374,0.303,96.000
'0:24.360',-0.085,-0.079,-0.368,0.291,96.000
'0:24.370',-0.060,-0.078,-0.363,0.279,96.000
'0:24.380',-0.055,-0.078,-0.357,0.267,96.000
'0:24.390',-0.035,-0.078,-0.351,0.255,96.000
'0:24.400',-0.020,-0.077,-0.345,0.243,96.000
'0:24.410',-0.010,-0.076,-0.341,0.232,96.000
'0:24.420',0.005,-0.076,-0.337,0.220,96.000
'0:24.430',0.045,-0.075,-0.333,0.209,96.000
'0:24.440',0.050,-0.074,-0.329,0.198,96.000
'0:24.450',0.115,-0.073,-0.325,0.187,96.000
'0:24.460',0.125,-0.072,-0.320,0.177,96.000
'0:24.470',0.185,-0.072,-0.314,0.167,96.000
'0:24.480',0.200,-0.071,-0.309,0.157,96.000
'0:24.490',0.235,-0.070,-0.303,0.147,96.000
'0:24.500',0.250,-0.069,-0.298,0.137,96.000
'0:24.510',0.290,-0.069,-0.289,0.128,96.000
'0:24.520',0.290,-0.069,-0.281,0.119,96.000
'0:24.530',0.265,-0.068,-0.273,0.110,96.000
'0:24.540',0.235,-0.068,-0.264,0.101,96.000
'0:24.550',0.180,-0.067,-0.256,0.093,96.000
'0:24.560',0.105,-0.068,-0.247,0.085,96.000
'0:24.570',0.040,-0.069,-0.238,0.077,96.000
'0:24.580',-0.005,-0.070,-0.229,0.069,96.000
'0:24.590',-0.025,-0.071,-0.220,0.061,96.000
'0:24.600',-0.040,-0.072,-0.211,0.053,96.000
'0:24.610',-0.045,-0.071,-0.201,0.046,96.000
'0:24.620',-0.050,-0.070,-0.191,0.039,96.000
'0:24.630',-0.020,-0.069,-0.181,0.032,96.000
'0:24.640',-0.045,-0.069,-0.171,0.025,96.000
'0:24.650',-0.050,-0.068,-0.161,0.018,96.000
'0:24.660',-0.045,-0.068,-0.153,0.012,96.000
'0:24.670',0.000,-0.068,-0.145,0.005,96.000
'0:24.680',-0.025,-0.068,-0.137,-0.001,96.000
'0:24.690',-0.035,-0.068,-0.129,-0.008,96.000
'0:24.700',-0.045,-0.068,-0.121,-0.014,96.000
'0:24.710',-0.025,-0.069,-0.116,-0.020,96.000
'0:24.720',-0.045,-0.070,-0.110,-0.026,96.000
'0:24.730',-0.065,-0.071,-0.104,-0.031,96.000
'0:24.740',-0.060,-0.072,-0.099,-0.037,96.000
'0:24.750',-0.055,-0.074,-0.093,-0.043,96.000
'0:24.760',-0.090,-0.074,-0.091,-0.048,96.000
'0:24.770',-0.065,-0.074,-0.089,-0.054,96.000
'0:24.780',-0.040,-0.074,-0.087,-0.059,96.000
'0:24.790',0.015,-0.074,-0.086,-0.064,96.000
'0:24.800',0.020,-0.074,-0.084,-0.070,96.000
'0:24.810',0.055,-0.073,-0.082,-0.075,96.000
'0:24.820',0.070,-0.072,-0.081,-0.079,96.000
'0:24.830',0.120,-0.071,-0.080,-0.084,96.000
'0:24.840',0.085,-0.070,-0.079,-0.089,96.000
'0:24.850',0.030,-0.070,-0.077,-0.094,96.000
'0:24.860',-0.035,-0.069,-0.077,-0.098,96.000
'0:24.870',-0.065,-0.069,-0.076,-0.102,96.000
'0:24.880',-0.120,-0.068,-0.075,-0.106,96.000
'0:24.890',-0.125,-0.068,-0.074,-0.111,96.000
'0:24.900',-0.130,-0.068,-0.074,-0.115,96.000
'0:24.910',-0.120,-0.068,-0.074,-0.118,96.000
'0:24.920',-0.125,-0.069,-0.073,-0.122,96.000
'0:24.930',-0.105,-0.069,-0.073,-0.126,96.000
'0:24.940',-0.145,-0.070,-0.073,-0.129,96.000
'0:24.950',-0.070,-0.070,-0.073,-0.133,96.000
'0:24.960',-0.020,-0.070,-0.072,-0.136,96.000
'0:24.970',0.225,-0.070,-0.071,-0.139,96.000
'0:24.980',0.425,-0.069,-0.070,-0.142,96.000
'0:24.990',-0.390,-0.069,-0.069,-0.146,96.000
'0:25.000',-0.320,-0.068,-0.068,-0.149,96.000
'0:25.010',-0.205,-0.069,-0.069,-0.152,96.000
'0:25.020',-0.100,-0.070,-0.070,-0.154,96.000
'0:25.030',-0.105,-0.070,-0.071,-0.157,96.000
'0:25.040',-0.105,-0.071,-0.073,-0.160,96.000
'0:25.050',-0.090,-0.072,-0.074,-0.163,96.000
'0:25.060',-0.135,-0.072,-0.074,-0.164,96.000
'0:25.070',-0.090,-0.072,-0.075,-0.165,96.000
'0:25.080',-0.105,-0.072,-0.075,-0.166,96.000
'0:25.090',-0.075,-0.072,-0.075,-0.167,96.000
'0:25.100',-0.085,-0.072,-0.076,-0.168,96.000
'0:25.110',-0.065,-0.072,-0.077,-0.167,96.000
'0:25.120',-0.060,-0.072,-0.077,-0.165,96.000
'0:25.130',-0.020,-0.072,-0.078,-0.164,96.000
'0:25.140',-0.035,-0.072,-0.079,-0.162,96.000
'0:25.150',-0.010,-0.072,-0.080,-0.160,96.000
'0:25.160',0.020,-0.073,-0.082,-0.156,96.000
'0:25.170',0.050,-0.074,-0.084,-0.152,96.000
'0:25.180',0.065,-0.075,-0.086,-0.148,96.000
'0:25.190',0.110,-0.076,-0.087,-0.144,96.000
'0:25.200',0.115,-0.077,-0.089,-0.141,96.000
'0:25.210',0.170,-0.076,-0.090,-0.135,96.000
'0:25.220',0.210,-0.076,-0.091,-0.129,96.000
'0:25.230',0.230,-0.075,-0.091,-0.123,96.000
'0:25.240',0.250,-0.074,-0.092,-0.117,96.000
'0:25.250',0.285,-0.074,-0.093,-0.112,96.000
'0:25.260',0.280,-0.074,-0.096,-0.105,96.000
'0:25.270',0.260,-0.074,-0.100,-0.098,96.000
'0:25.280',0.210,-0.074,-0.104,-0.091,96.000
'0:25.290',0.155,-0.075,-0.108,-0.085,96.000
'0:25.300',0.070,-0.075,-0.111,-0.078,96.000
'0:25.310',0.030,-0.074,-0.119,-0.071,96.000
'0:25.320',0.000,-0.074,-0.127,-0.063,96.000
'0:25.330',-0.030,-0.074,-0.134,-0.056,96.000
'0:25.340',-0.035,-0.073,-0.142,-0.049,96.000
'0:25.350',-0.045,-0.073,-0.149,-0.042,96.000
'0:25.360',-0.055,-0.072,-0.159,-0.034,96.000
'0:25.370',-0.050,-0.072,-0.168,-0.027,96.000
'0:25.380',-0.045,-0.071,-0.177,-0.019,96.000
'0:25.390',-0.040,-0.071,-0.187,-0.012,96.000
'0:25.400',-0.035,-0.070,-0.196,-0.005,96.000
'0:25.410',-0.035,-0.070,-0.205,0.003,96.000
'0:25.420',-0.030,-0.070,-0.213,0.010,96.000
'0:25.430',-0.025,-0.070,-0.222,0.017,96.000
'0:25.440',-0.040,-0.071,-0.231,0.025,96.000
'0:25.450',-0.050,-0.071,-0.239,0.032,96.000
'0:25.460',-0.050,-0.071,-0.247,0.039,96.000
'0:25.470',-0.055,-0.071,-0.254,0.046,96.000
'0:25.480',-0.055,-0.070,-0.262,0.053,96.000
'0:25.490',-0.060,-0.070,-0.269,0.060,96.000
'0:25.500',-0.065,-0.070,-0.277,0.068,96.000
'0:25.510',-0.065,-0.070,-0.282,0.074,96.000
'0:25.520',-0.050,-0.070,-0.288,0.081,96.000
'0:25.530',-0.060,-0.070,-0.294,0.088,96.000
'0:25.540',0.000,-0.070,-0.300,0.095,96.000
'0:25.550',0.035,-0.070,-0.306,0.102,96.000
'0:25.560',0.055,-0.071,-0.312,0.108,96.000
'0:25.570',0.065,-0.071,-0.317,0.115,96.000
'0:25.580',0.115,-0.072,-0.322,0.122,96.000
'0:25.590',0.090,-0.073,-0.327,0.129,96.000
'0:25.600',0.060,-0.073,-0.333,0.136,96.000
'0:25.610',0.015,-0.073,-0.338,0.142,96.000
'0:25.620',0.000,-0.074,-0.343,0.148,96.000
'0:25.630',-0.075,-0.074,-0.348,0.155,96.000
'0:25.640',-0.115,-0.075,-0.353,0.161,96.000
'0:25.650',-0.110,-0.075,-0.358,0.168,96.000
'0:25.660',-0.105,-0.074,-0.362,0.174,96.000
'0:25.670',-0.120,-0.073,-0.366,0.180,96.000
'0:25.680',-0.105,-0.073,-0.370,0.186,96.000
'0:25.690',-0.105,-0.072,-0.374,0.192,96.000
'0:25.700',-0.100,-0.071,-0.378,0.199,96.000
'0:25.710',-0.090,-0.072,-0.382,0.204,96.000
'0:25.720',0.130,-0.072,-0.385,0.210,96.000
'0:25.730',0.430,-0.073,-0.389,0.216,96.000
'0:25.740',-0.160,-0.073,-0.392,0.222,96.000
'0:25.750',-0.370,-0.074,-0.396,0.228,96.000
'0:25.760',-0.235,-0.073,-0.398,0.234,96.000
'0:25.770',-0.120,-0.073,-0.401,0.239,96.000
'0:25.780',-0.085,-0.072,-0.403,0.244,96.000
'0:25.790',-0.110,-0.071,-0.406,0.250,96.000
'0:25.800',-0.100,-0.071,-0.409,0.255,96.000
'0:25.810',-0.105,-0.070,-0.410,0.260,96.000
'0:25.820',-0.090,-0.070,-0.412,0.264,96.000
'0:25.830',-0.100,-0.070,-0.414,0.269,96.000
'0:25.840',-0.085,-0.070,-0.416,0.274,96.000
'0:25.850',-0.075,-0.069,-0.418,0.279,96.000
'0:25.860',-0.070,-0.070,-0.421,0.283,96.000
'0:25.870',-0.070,-0.071,-0.423,0.287,96.000
'0:25.880',-0.040,-0.072,-0.426,0.291,96.000
'0:25.890',-0.030,-0.074,-0.429,0.296,96.000
'0:25.900',-0.010,-0.075,-0.431,0.300,96.000
'0:25.910',0.000,-0.074,-0.434,0.304,96.000
'0:25.920',0.025,-0.074,-0.437,0.308,96.000
'0:25.930',0.055,-0.074,-0.439,0.312,96.000
'0:25.940',0.090,-0.073,-0.442,0.316,96.000
'0:25.950',0.125,-0.073,-0.445,0.320,96.000
'0:25.960',0.160,-0.073,-0.446,0.323,96.000
'0:25.970',0.185,-0.073,-0.447,0.327,96.000
'0:25.980',0.220,-0.074,-0.449,0.330,96.000
'0:25.990',0.245,-0.074,-0.450,0.334,96.000
'0:26.000',0.280,-0.074,-0.451,0.337,96.000
'0:26.010',0.280,-0.073,-0.453,0.340,96.000
'0:26.020',0.280,-0.072,-0.454,0.344,96.000
'0:26.030',0.255,-0.071,-0.455,0.347,96.000
'0:26.040',0.205,-0.070,-0.457,0.350,96.000
'0:26.050',0.135,-0.069,-0.458,0.353,96.000
'0:26.060',0.065,-0.069,-0.458,0.356,96.000
'0:26.070',0.010,-0.069,-0.458,0.359,96.000
'0:26.080',-0.005,-0.069,-0.458,0.361,96.000
'0:26.090',-0.025,-0.070,-0.458,0.364,96.000
'0:26.100',-0.030,-0.070,-0.458,0.367,96.000
'0:26.110',-0.025,-0.071,-0.457,0.369,96.000
'0:26.120',-0.025,-0.073,-0.455,0.372,96.000
'0:26.130',-0.025,-0.074,-0.454,0.374,96.000
'0:26.140',-0.035,-0.076,-0.453,0.377,96.000
'0:26.150',-0.020,-0.077,-0.451,0.379,96.000
'0:26.160',-0.025,-0.078,-0.452,0.381,96.000
'0:26.170',-0.005,-0.079,-0.452,0.383,96.000
'0:26.180',-0.010,-0.079,-0.452,0.385,96.000
'0:26.190',-0.005,-0.080,-0.453,0.387,96.000
'0:26.200',-0.005,-0.080,-0.453,0.389,96.000
'0:26.210',-0.015,-0.080,-0.453,0.391,96.000
'0:26.220',-0.035,-0.080,-0.453,0.392,96.000
'0:26.230',-0.020,-0.080,-0.452,0.394,96.000
'0:26.240',-0.035,-0.080,-0.452,0.395,96.000
'0:26.250',-0.045,-0.081,-0.452,0.397,96.000
'0:26.260',-0.045,-0.080,-0.450,0.398,96.000
'0:26.270',-0.035,-0.079,-0.448,0.399,96.000
'0:26.280',-0.050,-0.078,-0.446,0.400,96.000
'0:26.290',-0.045,-0.077,-0.444,0.401,96.000
'0:26.300',-0.040,-0.076,-0.442,0.402,96.000
'0:26.310',0.035,-0.076,-0.441,0.401,96.000
'0:26.320',0.050,-0.075,-0.439,0.401,96.000
'0:26.330',0.080,-0.075,-0.438,0.401,96.000
'0:26.340',0.075,-0.074,-0.436,0.400,96.000
'0:26.350',0.140,-0.073,-0.435,0.400,96.000
'0:26.360',0.095,-0.074,-0.433,0.396,96.000
'0:26.370',0.040,-0.074,-0.431,0.393,96.000
'0:26.380',-0.015,-0.074,-0.430,0.390,96.000
'0:26.390',-0.020,-0.074,-0.428,0.386,96.000
'0:26.400',-0.085,-0.075,-0.426,0.383,96.000
'0:26.410',-0.085,-0.074,-0.424,0.376,96.000
'0:26.420',-0.110,-0.073,-0.422,0.369,96.000
'0:26.430',-0.085,-0.072,-0.420,0.362,96.000
'0:26.440',-0.130,-0.071,-0.418,0.355,96.000
'0:26.450',-0.105,-0.070,-0.417,0.348,96.000
'0:26.460',-0.110,-0.069,-0.414,0.338,96.000
'0:26.470',-0.080,-0.068,-0.412,0.329,96.000
'0:26.480',-0.065,-0.068,-0.409,0.319,96.000
'0:26.490',0.170,-0.067,-0.407,0.309,96.000
'0:26.500',0.485,-0.066,-0.404,0.300,96.000
'0:26.510',-0.350,-0.066,-0.399,0.289,96.000
'0:26.520',-0.350,-0.067,-0.395,0.278,96.000
'0:26.530',-0.200,-0.068,-0.390,0.267,96.000
'0:26.540',-0.115,-0.068,-0.386,0.256,96.000
'0:26.550',-0.090,-0.069,-0.381,0.245,96.000
'0:26.560',-0.105,-0.070,-0.373,0.233,96.000
'0:26.570',-0.100,-0.070,-0.365,0.222,96.000
'0:26.580',-0.125,-0.071,-0.357,0.211,96.000
'0:26.590',-0.080,-0.071,-0.349,0.199,96.000
'0:26.600',-0.105,-0.072,-0.342,0.188,96.000
'0:26.610',-0.090,-0.071,-0.327,0.177,96.000
'0:26.620',-0.080,-0.070,-0.313,0.166,96.000
'0:26.630',-0.055,-0.070,-0.298,0.155,96.000
'0:26.640',-0.075,-0.069,-0.284,0.144,96.000
'0:26.650',-0.035,-0.069,-0.270,0.133,96.000
'0:26.660',-0.030,-0.068,-0.252,0.122,96.000
'0:26.670',-0.020,-0.068,-0.235,0.111,96.000
'0:26.680',0.000,-0.068,-0.218,0.100,96.000
'0:26.690',0.035,-0.068,-0.201,0.089,96.000
'0:26.700',0.070,-0.068,-0.184,0.078,96.000
'0:26.710',0.105,-0.069,-0.170,0.068,96.000
'0:26.720',0.115,-0.070,-0.155,0.058,96.000
'0:26.730',0.160,-0.072,-0.141,0.048,96.000
'0:26.740',0.200,-0.073,-0.126,0.038,96.000
'0:26.750',0.235,-0.074,-0.112,0.028,96.000
'0:26.760',0.260,-0.073,-0.105,0.018,96.000
'0:26.770',0.280,-0.072,-0.098,0.009,96.000
'0:26.780',0.275,-0.072,-0.091,-0.000,96.000
