'Elapsed time','ECG','Resp C','Resp A','Resp N','SpO2'
'hh:mm:ss.mmm','mV','mV','mV','mV','mV'
'0:00.000',-0.230,-0.068,-0.062,-0.502,92.000
'0:00.010',-0.105,-0.067,-0.061,-0.503,92.000
'0:00.020',0.000,-0.066,-0.060,-0.504,92.000
'0:00.030',0.000,-0.065,-0.060,-0.505,92.000
'0:00.040',0.060,-0.064,-0.059,-0.506,92.000
'0:00.050',0.090,-0.063,-0.058,-0.507,92.000
'0:00.060',0.025,-0.064,-0.059,-0.507,92.000
'0:00.070',0.100,-0.065,-0.060,-0.508,92.000
'0:00.080',0.135,-0.067,-0.060,-0.508,92.000
'0:00.090',0.560,-0.068,-0.061,-0.509,92.000
'0:00.100',0.730,-0.069,-0.062,-0.510,92.000
'0:00.110',0.285,-0.068,-0.062,-0.508,92.000
'0:00.120',-0.860,-0.068,-0.062,-0.506,92.000
'0:00.130',-2.800,-0.068,-0.063,-0.504,92.000
'0:00.140',-1.950,-0.068,-0.063,-0.503,92.000
'0:00.150',-1.400,-0.068,-0.063,-0.501,92.000
'0:00.160',-0.540,-0.068,-0.063,-0.495,92.000
'0:00.170',0.025,-0.068,-0.063,-0.489,92.000
'0:00.180',-0.060,-0.068,-0.063,-0.483,92.000
'0:00.190',0.095,-0.068,-0.064,-0.477,92.000
'0:00.200',0.010,-0.069,-0.064,-0.471,92.000
'0:00.210',0.070,-0.070,-0.065,-0.461,92.000
'0:00.220',-0.015,-0.072,-0.066,-0.451,92.000
'0:00.230',0.070,-0.074,-0.067,-0.441,92.000
'0:00.240',-0.015,-0.076,-0.068,-0.431,92.000
'0:00.250',-0.005,-0.078,-0.070,-0.422,92.000
'0:00.260',-0.030,-0.079,-0.071,-0.410,92.000
'0:00.270',0.010,-0.080,-0.072,-0.398,92.000
'0:00.280',-0.065,-0.082,-0.073,-0.386,92.000
'0:00.290',0.040,-0.083,-0.074,-0.375,92.000
'0:00.300',0.035,-0.085,-0.075,-0.363,92.000
'0:00.310',0.055,-0.087,-0.076,-0.350,92.000
'0:00.320',0.015,-0.089,-0.078,-0.338,92.000
'0:00.330',0.090,-0.091,-0.080,-0.326,92.000
'0:00.340',0.080,-0.093,-0.081,-0.313,92.000
'0:00.350',0.110,-0.095,-0.083,-0.301,92.000
'0:00.360',0.045,-0.096,-0.084,-0.289,92.000
'0:00.370',0.050,-0.097,-0.086,-0.276,92.000
'0:00.380',-0.045,-0.099,-0.087,-0.264,92.000
'0:00.390',0.005,-0.100,-0.089,-0.251,92.000
'0:00.400',-0.085,-0.102,-0.090,-0.239,92.000
'0:00.410',-0.285,-0.102,-0.091,-0.227,92.000
'0:00.420',-0.485,-0.103,-0.091,-0.215,92.000
'0:00.430',-0.905,-0.104,-0.092,-0.203,92.000
'0:00.440',-0.650,-0.105,-0.093,-0.191,92.000
'0:00.450',-0.515,-0.105,-0.093,-0.178,92.000
'0:00.460',-0.320,-0.107,-0.095,-0.167,92.000
'0:00.470',-0.250,-0.109,-0.096,-0.155,92.000
'0:00.480',2.020,-0.111,-0.098,-0.144,92.000
'0:00.490',1.385,-0.112,-0.099,-0.132,92.000
'0:00.500',-0.160,-0.114,-0.100,-0.120,92.000
'0:00.510',-0.595,-0.115,-0.102,-0.109,92.000
'0:00.520',-0.080,-0.117,-0.103,-0.098,92.000
'0:00.530',-0.190,-0.118,-0.105,-0.087,92.000
'0:00.540',0.100,-0.120,-0.106,-0.076,92.000
'0:00.550',0.230,-0.121,-0.107,-0.065,92.000
'0:00.560',0.500,-0.122,-0.108,-0.054,92.000
'0:00.570',1.795,-0.124,-0.109,-0.044,92.000
'0:00.580',0.765,-0.125,-0.110,-0.034,92.000
'0:00.590',0.860,-0.127,-0.112,-0.024,92.000
'0:00.600',0.625,-0.128,-0.113,-0.013,92.000
'0:00.610',0.550,-0.130,-0.114,-0.004,92.000
'0:00.620',0.235,-0.133,-0.116,0.006,92.000
'0:00.630',0.455,-0.135,-0.118,0.015,92.000
'0:00.640',0.965,-0.138,-0.120,0.025,92.000
'0:00.650',0.905,-0.140,-0.122,0.035,92.000
'0:00.660',0.740,-0.142,-0.123,0.044,92.000
'0:00.670',0.590,-0.144,-0.125,0.053,92.000
'0:00.680',0.240,-0.147,-0.126,0.062,92.000
'0:00.690',0.560,-0.149,-0.128,0.071,92.000
'0:00.700',0.170,-0.151,-0.129,0.080,92.000
'0:00.710',0.120,-0.152,-0.130,0.088,92.000
'0:00.720',-0.190,-0.153,-0.131,0.096,92.000
'0:00.730',-0.115,-0.154,-0.132,0.104,92.000
'0:00.740',0.330,-0.155,-0.133,0.112,92.000
'0:00.750',0.545,-0.157,-0.134,0.120,92.000
'0:00.760',0.380,-0.158,-0.135,0.127,92.000
'0:00.770',-0.085,-0.158,-0.136,0.134,92.000
'0:00.780',-0.455,-0.159,-0.137,0.141,92.000
'0:00.790',-0.325,-0.160,-0.139,0.149,92.000
'0:00.800',-0.515,-0.161,-0.140,0.156,92.000
'0:00.810',-0.870,-0.163,-0.141,0.162,92.000
'0:00.820',-0.840,-0.165,-0.143,0.169,92.000
'0:00.830',-1.240,-0.166,-0.144,0.175,92.000
'0:00.840',-1.125,-0.168,-0.145,0.182,92.000
'0:00.850',-1.095,-0.170,-0.147,0.188,92.000
'0:00.860',-0.885,-0.171,-0.148,0.194,92.000
'0:00.870',-0.940,-0.172,-0.148,0.199,92.000
'0:00.880',-0.820,-0.173,-0.149,0.205,92.000
'0:00.890',-0.900,-0.174,-0.150,0.210,92.000
'0:00.900',-0.880,-0.175,-0.151,0.216,92.000
'0:00.910',-1.095,-0.176,-0.151,0.221,92.000
'0:00.920',-1.030,-0.177,-0.152,0.226,92.000
'0:00.930',-1.135,-0.177,-0.152,0.231,92.000
'0:00.940',-1.195,-0.178,-0.153,0.236,92.000
'0:00.950',-1.355,-0.179,-0.154,0.241,92.000
'0:00.960',-1.385,-0.180,-0.155,0.246,92.000
'0:00.970',-1.520,-0.182,-0.156,0.251,92.000
'0:00.980',-1.715,-0.183,-0.157,0.256,92.000
'0:00.990',-1.875,-0.185,-0.158,0.261,92.000
'0:01.000',-2.095,-0.186,-0.159,0.266,92.000
'0:01.010',-2.265,-0.187,-0.160,0.270,92.000
'0:01.020',-2.540,-0.189,-0.161,0.275,92.000
'0:01.030',-2.890,-0.190,-0.162,0.279,92.000
'0:01.040',-3.160,-0.191,-0.163,0.283,92.000
'0:01.050',-3.420,-0.192,-0.164,0.288,92.000
'0:01.060',-3.800,-0.193,-0.165,0.292,92.000
'0:01.070',-4.080,-0.195,-0.166,0.296,92.000
'0:01.080',-4.470,-0.196,-0.167,0.300,92.000
'0:01.090',-4.585,-0.197,-0.167,0.304,92.000
'0:01.100',-4.940,-0.198,-0.168,0.308,92.000
'0:01.110',-5.465,-0.199,-0.169,0.312,92.000
'0:01.120',-5.855,-0.199,-0.170,0.315,92.000
'0:01.130',-6.175,-0.200,-0.170,0.319,92.000
'0:01.140',-6.630,-0.201,-0.171,0.322,92.000
'0:01.150',-6.930,-0.201,-0.172,0.326,92.000
'0:01.160',-7.520,-0.203,-0.173,0.329,92.000
'0:01.170',-7.690,-0.204,-0.174,0.332,92.000
'0:01.180',-7.990,-0.205,-0.175,0.335,92.000
'0:01.190',-8.185,-0.207,-0.176,0.338,92.000
'0:01.200',-8.615,-0.208,-0.177,0.341,92.000
'0:01.210',-8.905,-0.212,-0.179,0.343,92.000
'0:01.220',-9.130,-0.215,-0.181,0.346,92.000
'0:01.230',-9.230,-0.219,-0.184,0.348,92.000
'0:01.240',-9.570,-0.222,-0.186,0.351,92.000
'0:01.250',-9.530,-0.226,-0.188,0.353,92.000
'0:01.260',-9.790,-0.227,-0.189,0.355,92.000
'0:01.270',-9.745,-0.229,-0.190,0.358,92.000
'0:01.280',-9.885,-0.230,-0.191,0.360,92.000
'0:01.290',-9.600,-0.232,-0.192,0.362,92.000
'0:01.300',-9.675,-0.234,-0.193,0.364,92.000
'0:01.310',-9.350,-0.233,-0.193,0.366,92.000
'0:01.320',-9.240,-0.232,-0.193,0.368,92.000
'0:01.330',-8.650,-0.232,-0.193,0.370,92.000
'0:01.340',-8.435,-0.231,-0.193,0.372,92.000
'0:01.350',-7.855,-0.231,-0.193,0.374,92.000
'0:01.360',-7.305,-0.232,-0.193,0.376,92.000
'0:01.370',-6.425,-0.233,-0.194,0.378,92.000
'0:01.380',-5.760,-0.234,-0.195,0.379,92.000
'0:01.390',-4.630,-0.235,-0.196,0.381,92.000
'0:01.400',-3.585,-0.236,-0.197,0.383,92.000
'0:01.410',-2.155,-0.237,-0.197,0.384,92.000
'0:01.420',-1.085,-0.238,-0.198,0.386,92.000
'0:01.430',0.565,-0.240,-0.199,0.387,92.000
'0:01.440',1.945,-0.241,-0.200,0.388,92.000
'0:01.450',3.800,-0.242,-0.201,0.390,92.000
'0:01.460',5.260,-0.243,-0.202,0.391,92.000
'0:01.470',7.325,-0.244,-0.202,0.392,92.000
'0:01.480',9.200,-0.245,-0.203,0.393,92.000
'0:01.490',-8.690,-0.245,-0.204,0.395,92.000
'0:01.500',-6.600,-0.246,-0.204,0.396,92.000
'0:01.510',-3.730,-0.247,-0.205,0.397,92.000
'0:01.520',-1.280,-0.248,-0.206,0.398,92.000
'0:01.530',-9.880,-0.249,-0.207,0.399,92.000
'0:01.540',9.865,-0.250,-0.208,0.400,92.000
'0:01.550',-9.850,-0.251,-0.209,0.401,92.000
'0:01.560',9.830,-0.250,-0.209,0.402,92.000
'0:01.570',-9.810,-0.250,-0.208,0.403,92.000
'0:01.580',9.790,-0.249,-0.208,0.403,92.000
'0:01.590',-9.770,-0.249,-0.208,0.404,92.000
'0:01.600',9.745,-0.248,-0.207,0.405,92.000
'0:01.610',-9.725,-0.249,-0.208,0.405,92.000
'0:01.620',9.700,-0.249,-0.208,0.406,92.000
'0:01.630',-9.675,-0.249,-0.208,0.407,92.000
'0:01.640',9.650,-0.250,-0.208,0.407,92.000
'0:01.650',-9.625,-0.250,-0.209,0.408,92.000
'0:01.660',9.600,-0.252,-0.209,0.408,92.000
'0:01.670',-9.575,-0.254,-0.210,0.408,92.000
'0:01.680',9.550,-0.255,-0.211,0.409,92.000
'0:01.690',-9.525,-0.257,-0.212,0.409,92.000
'0:01.700',9.500,-0.258,-0.213,0.410,92.000
'0:01.710',-9.480,-0.260,-0.214,0.410,92.000
'0:01.720',9.460,-0.262,-0.214,0.410,92.000
'0:01.730',-9.440,-0.263,-0.215,0.410,92.000
'0:01.740',9.420,-0.265,-0.216,0.410,92.000
'0:01.750',-9.405,-0.266,-0.217,0.410,92.000
'0:01.760',9.385,-0.266,-0.217,0.410,92.000
'0:01.770',-9.375,-0.267,-0.218,0.410,92.000
'0:01.780',9.365,-0.267,-0.218,0.410,92.000
'0:01.790',-9.355,-0.268,-0.219,0.410,92.000
'0:01.800',9.350,-0.268,-0.220,0.410,92.000
'0:01.810',-9.350,-0.268,-0.220,0.410,92.000
'0:01.820',9.350,-0.267,-0.220,0.409,92.000
'0:01.830',-9.355,-0.267,-0.220,0.409,92.000
'0:01.840',9.360,-0.267,-0.220,0.409,92.000
'0:01.850',-8.025,-0.266,-0.221,0.408,92.000
'0:01.860',9.385,-0.268,-0.221,0.408,92.000
'0:01.870',1.680,-0.269,-0.222,0.407,92.000
'0:01.880',9.435,-0.270,-0.223,0.407,92.000
'0:01.890',-9.445,-0.271,-0.224,0.406,92.000
'0:01.900',-2.470,-0.272,-0.225,0.405,92.000
'0:01.910',-9.505,-0.274,-0.226,0.405,92.000
'0:01.920',4.620,-0.275,-0.226,0.404,92.000
'0:01.930',-9.575,-0.277,-0.227,0.403,92.000
'0:01.940',9.615,-0.279,-0.227,0.402,92.000
'0:01.950',-9.655,-0.281,-0.228,0.401,92.000
'0:01.960',9.700,-0.281,-0.228,0.400,92.000
'0:01.970',-9.750,-0.281,-0.227,0.399,92.000
'0:01.980',9.800,-0.281,-0.227,0.398,92.000
'0:01.990',-9.845,-0.281,-0.227,0.397,92.000
'0:02.000',9.900,-0.281,-0.227,0.397,92.000
'0:02.010',-9.950,-0.280,-0.226,0.395,92.000
'0:02.020',10.005,-0.278,-0.226,0.394,92.000
'0:02.030',-10.060,-0.276,-0.225,0.393,92.000
'0:02.040',10.115,-0.275,-0.225,0.392,92.000
'0:02.050',-10.170,-0.273,-0.224,0.391,92.000
'0:02.060',10.225,-0.273,-0.224,0.390,92.000
'0:02.070',10.200,-0.273,-0.224,0.388,92.000
'0:02.080',-10.145,-0.274,-0.224,0.387,92.000
'0:02.090',10.095,-0.274,-0.224,0.385,92.000
'0:02.100',-10.050,-0.274,-0.225,0.384,92.000
'0:02.110',10.000,-0.276,-0.226,0.383,92.000
'0:02.120',-9.955,-0.279,-0.227,0.381,92.000
'0:02.130',9.915,-0.281,-0.228,0.380,92.000
'0:02.140',-9.875,-0.283,-0.229,0.378,92.000
'0:02.150',9.835,-0.285,-0.230,0.376,92.000
'0:02.160',-9.800,-0.286,-0.230,0.375,92.000
'0:02.170',9.770,-0.286,-0.231,0.373,92.000
'0:02.180',-9.740,-0.286,-0.231,0.372,92.000
'0:02.190',9.715,-0.286,-0.231,0.370,92.000
'0:02.200',-9.695,-0.286,-0.231,0.369,92.000
'0:02.210',9.675,-0.286,-0.231,0.368,92.000
'0:02.220',-9.660,-0.285,-0.230,0.366,92.000
'0:02.230',9.645,-0.284,-0.230,0.365,92.000
'0:02.240',-9.640,-0.283,-0.230,0.363,92.000
'0:02.250',9.630,-0.283,-0.229,0.362,92.000
'0:02.260',-9.630,-0.283,-0.229,0.361,92.000
'0:02.270',9.630,-0.283,-0.229,0.359,92.000
'0:02.280',-9.630,-0.283,-0.229,0.358,92.000
'0:02.290',9.635,-0.284,-0.229,0.357,92.000
'0:02.300',-9.645,-0.284,-0.229,0.355,92.000
'0:02.310',9.655,-0.283,-0.229,0.354,92.000
'0:02.320',-9.670,-0.283,-0.229,0.352,92.000
'0:02.330',9.680,-0.282,-0.228,0.351,92.000
'0:02.340',-9.700,-0.282,-0.228,0.349,92.000
'0:02.350',9.715,-0.281,-0.228,0.348,92.000
'0:02.360',-9.735,-0.281,-0.228,0.346,92.000
'0:02.370',9.750,-0.280,-0.228,0.343,92.000
'0:02.380',-9.770,-0.280,-0.228,0.341,92.000
'0:02.390',9.790,-0.279,-0.228,0.339,92.000
'0:02.400',-9.810,-0.278,-0.229,0.336,92.000
'0:02.410',9.830,-0.278,-0.228,0.332,92.000
'0:02.420',-9.855,-0.277,-0.228,0.327,92.000
'0:02.430',9.875,-0.277,-0.227,0.322,92.000
'0:02.440',-9.895,-0.276,-0.227,0.317,92.000
'0:02.450',9.910,-0.275,-0.226,0.313,92.000
'0:02.460',-9.930,-0.274,-0.225,0.305,92.000
'0:02.470',9.945,-0.273,-0.223,0.297,92.000
'0:02.480',-9.965,-0.272,-0.222,0.289,92.000
'0:02.490',9.980,-0.270,-0.221,0.281,92.000
'0:02.500',-9.995,-0.269,-0.219,0.273,92.000
'0:02.510',10.005,-0.268,-0.218,0.262,92.000
'0:02.520',-10.020,-0.267,-0.216,0.251,92.000
'0:02.530',10.030,-0.266,-0.215,0.240,92.000
'0:02.540',-10.035,-0.265,-0.214,0.230,92.000
'0:02.550',10.045,-0.264,-0.212,0.219,92.000
'0:02.560',-10.050,-0.261,-0.211,0.206,92.000
'0:02.570',10.055,-0.259,-0.209,0.193,92.000
'0:02.580',-10.060,-0.257,-0.208,0.179,92.000
'0:02.590',10.060,-0.255,-0.206,0.166,92.000
'0:02.600',-10.065,-0.253,-0.205,0.153,92.000
'0:02.610',10.065,-0.251,-0.203,0.139,92.000
'0:02.620',-10.065,-0.248,-0.202,0.125,92.000
'0:02.630',10.065,-0.246,-0.201,0.110,92.000
'0:02.640',-10.060,-0.244,-0.200,0.096,92.000
'0:02.650',-2.030,-0.242,-0.198,0.081,92.000
'0:02.660',-3.585,-0.238,-0.196,0.067,92.000
'0:02.670',-5.710,-0.235,-0.193,0.053,92.000
'0:02.680',-6.950,-0.231,-0.190,0.038,92.000
'0:02.690',-8.805,-0.228,-0.188,0.024,92.000
'0:02.700',-9.755,-0.224,-0.185,0.010,92.000
'0:02.710',9.120,-0.222,-0.183,-0.004,92.000
'0:02.720',8.440,-0.220,-0.180,-0.018,92.000
'0:02.730',7.070,-0.217,-0.178,-0.031,92.000
'0:02.740',6.645,-0.215,-0.175,-0.045,92.000
'0:02.750',5.490,-0.213,-0.173,-0.059,92.000
'0:02.760',5.305,-0.212,-0.172,-0.071,92.000
'0:02.770',4.355,-0.212,-0.171,-0.083,92.000
'0:02.780',4.390,-0.211,-0.170,-0.096,92.000
'0:02.790',3.640,-0.211,-0.169,-0.108,92.000
'0:02.800',3.885,-0.210,-0.169,-0.121,92.000
'0:02.810',3.325,-0.208,-0.167,-0.131,92.000
'0:02.820',3.765,-0.206,-0.165,-0.142,92.000
'0:02.830',3.405,-0.204,-0.164,-0.153,92.000
'0:02.840',4.035,-0.201,-0.162,-0.163,92.000
'0:02.850',3.870,-0.199,-0.161,-0.174,92.000
'0:02.860',4.685,-0.195,-0.158,-0.183,92.000
'0:02.870',4.725,-0.192,-0.155,-0.193,92.000
'0:02.880',5.725,-0.188,-0.153,-0.202,92.000
'0:02.890',5.980,-0.184,-0.150,-0.211,92.000
'0:02.900',7.170,-0.180,-0.147,-0.221,92.000
'0:02.910',7.665,-0.176,-0.144,-0.229,92.000
'0:02.920',9.050,-0.172,-0.141,-0.237,92.000
'0:02.930',9.805,-0.168,-0.138,-0.245,92.000
'0:02.940',-9.070,-0.164,-0.135,-0.253,92.000
'0:02.950',-8.035,-0.160,-0.132,-0.261,92.000
'0:02.960',-6.205,-0.157,-0.129,-0.268,92.000
'0:02.970',-4.855,-0.153,-0.127,-0.275,92.000
'0:02.980',-2.765,-0.150,-0.125,-0.282,92.000
'0:02.990',-1.075,-0.147,-0.123,-0.289,92.000
'0:03.000',-10.120,-0.144,-0.121,-0.296,92.000
'0:03.010',10.130,-0.141,-0.118,-0.302,92.000
'0:03.020',-10.140,-0.138,-0.116,-0.308,92.000
'0:03.030',10.150,-0.134,-0.114,-0.314,92.000
'0:03.040',-10.160,-0.131,-0.112,-0.320,92.000
'0:03.050',10.170,-0.128,-0.110,-0.326,92.000
'0:03.060',-10.185,-0.125,-0.107,-0.331,92.000
'0:03.070',10.195,-0.122,-0.104,-0.336,92.000
'0:03.080',-10.210,-0.119,-0.102,-0.341,92.000
'0:03.090',10.220,-0.116,-0.099,-0.346,92.000
'0:03.100',-10.230,-0.113,-0.097,-0.351,92.000
'0:03.110',-10.235,-0.110,-0.095,-0.356,92.000
'0:03.120',10.220,-0.108,-0.093,-0.360,92.000
'0:03.130',-10.210,-0.106,-0.091,-0.364,92.000
'0:03.140',10.195,-0.104,-0.089,-0.369,92.000
'0:03.150',-10.185,-0.102,-0.087,-0.373,92.000
'0:03.160',10.175,-0.099,-0.085,-0.377,92.000
'0:03.170',-10.165,-0.096,-0.083,-0.380,92.000
'0:03.180',10.150,-0.093,-0.081,-0.384,92.000
'0:03.190',-10.140,-0.090,-0.079,-0.388,92.000
'0:03.200',10.130,-0.087,-0.076,-0.392,92.000
'0:03.210',-10.120,-0.084,-0.074,-0.395,92.000
'0:03.220',10.110,-0.080,-0.072,-0.398,92.000
'0:03.230',-10.100,-0.077,-0.069,-0.401,92.000
'0:03.240',10.090,-0.074,-0.067,-0.405,92.000
'0:03.250',-10.080,-0.071,-0.065,-0.408,92.000
'0:03.260',10.070,-0.068,-0.063,-0.411,92.000
'0:03.270',-10.065,-0.065,-0.060,-0.414,92.000
'0:03.280',10.055,-0.062,-0.058,-0.417,92.000
'0:03.290',-10.050,-0.059,-0.056,-0.419,92.000
'0:03.300',10.040,-0.056,-0.054,-0.422,92.000
'0:03.310',-10.035,-0.054,-0.052,-0.425,92.000
'0:03.320',10.030,-0.051,-0.050,-0.427,92.000
'0:03.330',-10.025,-0.049,-0.048,-0.430,92.000
'0:03.340',10.015,-0.047,-0.046,-0.432,92.000
'0:03.350',-10.015,-0.044,-0.044,-0.434,92.000
'0:03.360',10.010,-0.042,-0.043,-0.436,92.000
'0:03.370',-10.005,-0.040,-0.041,-0.439,92.000
'0:03.380',10.005,-0.038,-0.039,-0.441,92.000
'0:03.390',-10.005,-0.036,-0.038,-0.443,92.000
'0:03.400',10.000,-0.033,-0.036,-0.445,92.000
'0:03.410',-10.000,-0.032,-0.035,-0.447,92.000
'0:03.420',10.000,-0.030,-0.034,-0.449,92.000
'0:03.430',-10.005,-0.029,-0.033,-0.451,92.000
'0:03.440',10.005,-0.027,-0.032,-0.453,92.000
'0:03.450',-10.005,-0.025,-0.031,-0.455,92.000
'0:03.460',10.010,-0.023,-0.029,-0.456,92.000
'0:03.470',-10.010,-0.021,-0.027,-0.458,92.000
'0:03.480',10.015,-0.018,-0.025,-0.459,92.000
'0:03.490',-10.020,-0.016,-0.024,-0.461,92.000
'0:03.500',10.025,-0.014,-0.022,-0.462,92.000
'0:03.510',-10.030,-0.011,-0.020,-0.464,92.000
'0:03.520',10.035,-0.009,-0.018,-0.465,92.000
'0:03.530',-10.045,-0.007,-0.016,-0.466,92.000
'0:03.540',10.050,-0.004,-0.014,-0.468,92.000
'0:03.550',-10.055,-0.002,-0.012,-0.469,92.000
'0:03.560',10.065,-0.000,-0.011,-0.470,92.000
'0:03.570',-10.070,0.001,-0.009,-0.471,92.000
'0:03.580',10.080,0.002,-0.008,-0.472,92.000
'0:03.590',-10.085,0.004,-0.007,-0.473,92.000
'0:03.600',10.095,0.005,-0.005,-0.474,92.000
'0:03.610',-10.100,0.007,-0.004,-0.475,92.000
'0:03.620',10.110,0.010,-0.002,-0.476,92.000
'0:03.630',-10.115,0.012,-0.000,-0.477,92.000
'0:03.640',10.125,0.015,0.002,-0.478,92.000
'0:03.650',-10.135,0.017,0.003,-0.479,92.000
'0:03.660',10.140,0.020,0.005,-0.480,92.000
'0:03.670',-10.150,0.022,0.006,-0.481,92.000
'0:03.680',10.155,0.024,0.008,-0.481,92.000
'0:03.690',-10.160,0.027,0.009,-0.482,92.000
'0:03.700',10.170,0.029,0.011,-0.483,92.000
'0:03.710',-10.175,0.030,0.012,-0.483,92.000
'0:03.720',10.180,0.031,0.012,-0.484,92.000
'0:03.730',-10.185,0.032,0.013,-0.484,92.000
'0:03.740',10.195,0.033,0.014,-0.485,92.000
'0:03.750',-10.195,0.033,0.014,-0.486,92.000
'0:03.760',10.205,0.034,0.015,-0.486,92.000
'0:03.770',-10.205,0.035,0.015,-0.486,92.000
'0:03.780',10.210,0.035,0.015,-0.487,92.000
'0:03.790',-10.215,0.036,0.016,-0.487,92.000
'0:03.800',10.220,0.036,0.016,-0.488,92.000
'0:03.810',-10.220,0.036,0.016,-0.488,92.000
'0:03.820',10.225,0.036,0.016,-0.488,92.000
'0:03.830',-10.225,0.037,0.016,-0.488,92.000
'0:03.840',10.230,0.037,0.016,-0.488,92.000
'0:03.850',-10.230,0.037,0.016,-0.488,92.000
'0:03.860',10.230,0.038,0.016,-0.486,92.000
'0:03.870',-10.235,0.038,0.016,-0.485,92.000
'0:03.880',10.235,0.039,0.017,-0.483,92.000
'0:03.890',-10.235,0.040,0.017,-0.482,92.000
'0:03.900',-10.235,0.041,0.017,-0.480,92.000
'0:03.910',10.235,0.040,0.016,-0.475,92.000
'0:03.920',-10.235,0.040,0.016,-0.471,92.000
'0:03.930',10.235,0.039,0.015,-0.466,92.000
'0:03.940',-10.230,0.039,0.015,-0.461,92.000
'0:03.950',10.230,0.038,0.014,-0.456,93.000
'0:03.960',-10.225,0.035,0.012,-0.448,93.000
'0:03.970',10.225,0.033,0.011,-0.440,93.000
'0:03.980',-10.220,0.031,0.009,-0.432,93.000
'0:03.990',10.220,0.028,0.007,-0.424,93.000
'0:04.000',-10.215,0.026,0.005,-0.416,93.000
'0:04.010',10.215,0.024,0.004,-0.406,93.000
'0:04.020',-10.210,0.022,0.003,-0.395,93.000
'0:04.030',10.205,0.020,0.002,-0.385,93.000
'0:04.040',-10.200,0.018,0.001,-0.375,93.000
'0:04.050',10.195,0.017,-0.000,-0.365,93.000
'0:04.060',-10.190,0.015,-0.001,-0.353,93.000
'0:04.070',10.185,0.013,-0.003,-0.342,93.000
'0:04.080',-10.180,0.011,-0.004,-0.330,93.000
'0:04.090',10.175,0.009,-0.005,-0.319,93.000
'0:04.100',-10.165,0.008,-0.006,-0.307,93.000
'0:04.110',10.160,0.007,-0.007,-0.295,93.000
'0:04.120',-10.150,0.005,-0.008,-0.283,93.000
'0:04.130',10.145,0.004,-0.009,-0.271,93.000
'0:04.140',-10.135,0.003,-0.010,-0.260,93.000
'0:04.150',10.130,0.002,-0.012,-0.248,93.000
'0:04.160',-10.120,0.002,-0.012,-0.236,93.000
'0:04.170',10.115,0.001,-0.012,-0.224,93.000
'0:04.180',-10.105,0.001,-0.012,-0.212,93.000
'0:04.190',10.095,0.001,-0.013,-0.200,93.000
'0:04.200',-10.090,0.000,-0.013,-0.188,93.000
'0:04.210',10.080,-0.002,-0.014,-0.176,93.000
'0:04.220',-10.075,-0.004,-0.016,-0.165,93.000
'0:04.230',10.065,-0.005,-0.017,-0.154,93.000
'0:04.240',-10.060,-0.007,-0.018,-0.142,93.000
'0:04.250',10.055,-0.009,-0.019,-0.131,93.000
'0:04.260',-10.045,-0.012,-0.021,-0.120,93.000
'0:04.270',10.040,-0.014,-0.023,-0.109,93.000
'0:04.280',-10.035,-0.017,-0.025,-0.097,93.000
'0:04.290',10.030,-0.019,-0.027,-0.086,93.000
'0:04.300',-10.025,-0.021,-0.029,-0.075,93.000
'0:04.310',10.020,-0.024,-0.031,-0.065,93.000
'0:04.320',-10.015,-0.026,-0.033,-0.054,93.000
'0:04.330',10.015,-0.028,-0.034,-0.044,93.000
'0:04.340',-10.010,-0.030,-0.036,-0.034,93.000
'0:04.350',10.010,-0.033,-0.038,-0.023,93.000
'0:04.360',-10.010,-0.035,-0.039,-0.014,93.000
'0:04.370',10.010,-0.038,-0.041,-0.004,93.000
'0:04.380',-10.015,-0.040,-0.043,0.005,93.000
'0:04.390',10.015,-0.043,-0.045,0.015,93.000
'0:04.400',-10.015,-0.046,-0.047,0.024,93.000
'0:04.410',10.020,-0.049,-0.048,0.033,93.000
'0:04.420',-10.025,-0.051,-0.050,0.043,93.000
'0:04.430',10.030,-0.054,-0.052,0.052,93.000
'0:04.440',-10.035,-0.057,-0.053,0.061,93.000
'0:04.450',10.045,-0.059,-0.055,0.070,93.000
'0:04.460',-10.050,-0.061,-0.057,0.079,93.000
'0:04.470',10.060,-0.063,-0.058,0.087,93.000
'0:04.480',-10.070,-0.065,-0.060,0.096,93.000
'0:04.490',10.075,-0.066,-0.061,0.104,93.000
'0:04.500',-10.085,-0.068,-0.063,0.113,93.000
'0:04.510',10.095,-0.069,-0.064,0.120,93.000
'0:04.520',-10.105,-0.070,-0.065,0.128,93.000
'0:04.530',10.120,-0.071,-0.066,0.136,93.000
'0:04.540',-10.130,-0.071,-0.066,0.143,93.000
'0:04.550',10.140,-0.072,-0.067,0.151,93.000
'0:04.560',-10.150,-0.073,-0.068,0.158,93.000
'0:04.570',10.160,-0.074,-0.068,0.165,93.000
'0:04.580',-10.175,-0.075,-0.068,0.172,93.000
'0:04.590',10.185,-0.076,-0.069,0.180,93.000
'0:04.600',-10.195,-0.077,-0.069,0.187,93.000
'0:04.610',10.205,-0.079,-0.071,0.193,93.000
'0:04.620',-10.215,-0.081,-0.072,0.200,93.000
'0:04.630',10.225,-0.083,-0.074,0.207,93.000
'0:04.640',-10.235,-0.084,-0.075,0.213,93.000
'0:04.650',-10.230,-0.086,-0.077,0.220,93.000
'0:04.660',10.220,-0.088,-0.079,0.226,93.000
'0:04.670',-10.215,-0.091,-0.081,0.232,93.000
'0:04.680',10.205,-0.093,-0.083,0.238,93.000
'0:04.690',-10.200,-0.095,-0.085,0.244,93.000
'0:04.700',10.195,-0.097,-0.087,0.251,93.000
'0:04.710',-10.190,-0.099,-0.088,0.256,93.000
'0:04.720',10.185,-0.101,-0.089,0.262,93.000
'0:04.730',-10.185,-0.103,-0.091,0.268,93.000
'0:04.740',10.180,-0.105,-0.092,0.273,93.000
'0:04.750',-10.180,-0.107,-0.093,0.279,93.000
'0:04.760',10.180,-0.109,-0.095,0.284,93.000
'0:04.770',-10.180,-0.111,-0.096,0.290,93.000
'0:04.780',10.180,-0.113,-0.098,0.295,93.000
'0:04.790',-3.465,-0.115,-0.099,0.300,93.000
'0:04.800',10.185,-0.117,-0.101,0.305,93.000
'0:04.810',-10.190,-0.118,-0.102,0.310,93.000
'0:04.820',10.195,-0.120,-0.103,0.315,93.000
'0:04.830',-10.195,-0.121,-0.104,0.319,93.000
'0:04.840',10.200,-0.123,-0.105,0.324,93.000
'0:04.850',-10.205,-0.124,-0.107,0.329,93.000
'0:04.860',10.215,-0.126,-0.108,0.333,93.000
'0:04.870',-10.220,-0.127,-0.109,0.337,93.000
'0:04.880',10.225,-0.129,-0.110,0.341,93.000
'0:04.890',-10.230,-0.130,-0.111,0.345,93.000
'0:04.900',-10.235,-0.132,-0.112,0.349,93.000
'0:04.910',10.230,-0.135,-0.114,0.353,93.000
'0:04.920',-10.220,-0.137,-0.116,0.357,93.000
'0:04.930',10.215,-0.140,-0.117,0.361,93.000
'0:04.940',-10.210,-0.142,-0.119,0.365,93.000
'0:04.950',10.200,-0.145,-0.121,0.369,93.000
'0:04.960',0.885,-0.146,-0.122,0.372,93.000
'0:04.970',2.070,-0.148,-0.124,0.375,93.000
'0:04.980',3.785,-0.150,-0.126,0.379,93.000
'0:04.990',4.715,-0.152,-0.127,0.382,93.000
'0:05.000',6.225,-0.154,-0.129,0.386,93.000
'0:05.010',7.175,-0.156,-0.130,0.388,93.000
'0:05.020',8.585,-0.158,-0.131,0.391,93.000
'0:05.030',9.370,-0.159,-0.132,0.394,93.000
'0:05.040',-9.850,-0.161,-0.132,0.397,93.000
'0:05.050',-9.160,-0.162,-0.133,0.400,93.000
'0:05.060',-8.325,-0.164,-0.135,0.402,93.000
'0:05.070',-7.910,-0.166,-0.136,0.405,93.000
'0:05.080',-7.000,-0.168,-0.138,0.408,93.000
'0:05.090',-5.730,-0.170,-0.139,0.410,93.000
'0:05.100',-2.680,-0.171,-0.140,0.413,93.000
'0:05.110',-2.145,-0.172,-0.141,0.415,93.000
'0:05.120',-2.645,-0.173,-0.142,0.418,93.000
'0:05.130',-2.920,-0.174,-0.143,0.420,93.000
'0:05.140',-3.145,-0.174,-0.144,0.423,93.000
'0:05.150',-3.350,-0.175,-0.145,0.425,93.000
'0:05.160',-2.525,-0.176,-0.145,0.427,93.000
'0:05.170',-2.405,-0.177,-0.146,0.429,93.000
'0:05.180',-1.875,-0.177,-0.146,0.431,93.000
'0:05.190',-1.645,-0.178,-0.147,0.433,93.000
'0:05.200',-1.280,-0.179,-0.147,0.435,93.000
'0:05.210',-1.240,-0.181,-0.148,0.437,93.000
'0:05.220',-0.920,-0.182,-0.149,0.438,93.000
'0:05.230',-0.925,-0.184,-0.150,0.440,93.000
'0:05.240',-0.620,-0.186,-0.151,0.442,93.000
'0:05.250',-0.725,-0.187,-0.152,0.444,93.000
'0:05.260',-0.520,-0.190,-0.154,0.445,93.000
'0:05.270',-0.570,-0.194,-0.156,0.447,93.000
'0:05.280',-0.430,-0.197,-0.158,0.448,93.000
'0:05.290',-0.435,-0.200,-0.160,0.450,93.000
'0:05.300',-0.315,-0.203,-0.162,0.451,93.000
'0:05.310',-0.380,-0.206,-0.163,0.452,93.000
'0:05.320',-0.210,-0.208,-0.165,0.454,93.000
'0:05.330',-0.305,-0.210,-0.166,0.455,93.000
'0:05.340',-0.150,-0.213,-0.168,0.456,93.000
'0:05.350',-0.225,-0.215,-0.169,0.458,93.000
'0:05.360',0.015,-0.215,-0.169,0.459,93.000
'0:05.370',-0.045,-0.216,-0.170,0.460,93.000
'0:05.380',0.080,-0.216,-0.170,0.461,93.000
'0:05.390',-0.015,-0.216,-0.170,0.462,93.000
'0:05.400',0.155,-0.217,-0.171,0.463,93.000
'0:05.410',-0.020,-0.218,-0.171,0.464,93.000
'0:05.420',0.100,-0.219,-0.172,0.465,93.000
'0:05.430',0.000,-0.221,-0.173,0.466,93.000
'0:05.440',0.020,-0.222,-0.174,0.467,93.000
'0:05.450',-0.060,-0.223,-0.175,0.468,93.000
'0:05.460',-0.195,-0.224,-0.175,0.469,93.000
'0:05.470',-0.230,-0.225,-0.176,0.470,93.000
'0:05.480',-0.030,-0.225,-0.177,0.470,93.000
'0:05.490',0.010,-0.226,-0.178,0.471,93.000
'0:05.500',-0.090,-0.227,-0.178,0.472,93.000
'0:05.510',-0.035,-0.227,-0.179,0.473,93.000
'0:05.520',-0.020,-0.228,-0.179,0.474,93.000
'0:05.530',-0.090,-0.228,-0.180,0.475,93.000
'0:05.540',-0.100,-0.228,-0.180,0.475,93.000
'0:05.550',-0.065,-0.229,-0.180,0.476,93.000
'0:05.560',-0.080,-0.230,-0.181,0.477,93.000
'0:05.570',-0.150,-0.231,-0.181,0.477,93.000
'0:05.580',-0.175,-0.233,-0.181,0.478,93.000
'0:05.590',-0.125,-0.234,-0.182,0.478,93.000
'0:05.600',-0.105,-0.236,-0.182,0.479,93.000
'0:05.610',-0.070,-0.236,-0.183,0.479,93.000
'0:05.620',-0.115,-0.237,-0.184,0.480,93.000
'0:05.630',-0.085,-0.238,-0.185,0.480,93.000
'0:05.640',-0.070,-0.239,-0.185,0.480,93.000
'0:05.650',-0.075,-0.239,-0.186,0.481,93.000
'0:05.660',-0.035,-0.239,-0.187,0.481,93.000
'0:05.670',-0.035,-0.239,-0.188,0.481,93.000
'0:05.680',-0.100,-0.239,-0.188,0.481,93.000
'0:05.690',-0.070,-0.239,-0.189,0.481,93.000
'0:05.700',-0.075,-0.238,-0.190,0.481,93.000
'0:05.710',-0.075,-0.239,-0.190,0.481,93.000
'0:05.720',-0.045,-0.239,-0.191,0.481,93.000
'0:05.730',-0.030,-0.240,-0.191,0.481,93.000
'0:05.740',-0.090,-0.240,-0.191,0.481,93.000
'0:05.750',-0.015,-0.240,-0.192,0.481,93.000
'0:05.760',-0.030,-0.240,-0.191,0.480,93.000
'0:05.770',0.035,-0.240,-0.191,0.479,93.000
'0:05.780',0.100,-0.240,-0.191,0.479,93.000
'0:05.790',0.130,-0.240,-0.191,0.478,93.000
'0:05.800',0.285,-0.240,-0.191,0.477,93.000
'0:05.810',0.245,-0.240,-0.191,0.476,93.000
'0:05.820',0.185,-0.239,-0.191,0.475,93.000
'0:05.830',0.105,-0.239,-0.191,0.474,93.000
'0:05.840',0.040,-0.238,-0.191,0.473,93.000
'0:05.850',-0.120,-0.237,-0.191,0.472,93.000
'0:05.860',-0.090,-0.237,-0.191,0.471,93.000
'0:05.870',-0.155,-0.237,-0.191,0.469,93.000
'0:05.880',-0.080,-0.237,-0.191,0.468,93.000
'0:05.890',-0.140,-0.237,-0.191,0.466,93.000
'0:05.900',-0.145,-0.237,-0.191,0.464,93.000
'0:05.910',-0.545,-0.236,-0.190,0.461,93.000
'0:05.920',-0.760,-0.236,-0.190,0.458,93.000
'0:05.930',-0.525,-0.236,-0.189,0.455,93.000
'0:05.940',0.415,-0.235,-0.189,0.452,93.000
'0:05.950',2.535,-0.235,-0.188,0.449,93.000
'0:05.960',2.035,-0.234,-0.188,0.443,93.000
'0:05.970',1.270,-0.233,-0.187,0.437,93.000
'0:05.980',0.675,-0.232,-0.187,0.430,93.000
'0:05.990',-0.010,-0.231,-0.187,0.424,93.000
'0:06.000',-0.105,-0.230,-0.186,0.417,93.000
'0:06.010',-0.155,-0.228,-0.185,0.407,93.000
'0:06.020',-0.155,-0.227,-0.183,0.397,93.000
'0:06.030',-0.165,-0.225,-0.181,0.386,93.000
'0:06.040',-0.170,-0.223,-0.180,0.376,93.000
'0:06.050',-0.100,-0.222,-0.178,0.366,93.000
'0:06.060',-0.180,-0.220,-0.176,0.352,93.000
'0:06.070',-0.150,-0.219,-0.175,0.338,93.000
'0:06.080',-0.145,-0.218,-0.173,0.324,93.000
'0:06.090',-0.200,-0.216,-0.171,0.311,93.000
'0:06.100',-0.155,-0.215,-0.169,0.297,93.000
'0:06.110',-0.165,-0.214,-0.168,0.281,93.000
'0:06.120',-0.115,-0.213,-0.167,0.265,93.000
'0:06.130',-0.180,-0.212,-0.166,0.249,93.000
'0:06.140',-0.160,-0.211,-0.165,0.233,93.000
'0:06.150',-0.225,-0.210,-0.164,0.217,93.000
'0:06.160',-0.190,-0.208,-0.162,0.201,93.000
'0:06.170',-0.160,-0.205,-0.160,0.184,93.000
'0:06.180',-0.155,-0.202,-0.158,0.167,93.000
'0:06.190',-0.115,-0.200,-0.156,0.151,93.000
'0:06.200',-0.125,-0.197,-0.154,0.134,93.000
'0:06.210',-0.110,-0.192,-0.151,0.117,93.000
'0:06.220',-0.025,-0.188,-0.148,0.101,93.000
'0:06.230',0.060,-0.183,-0.145,0.084,93.000
'0:06.240',0.110,-0.179,-0.141,0.068,93.000
'0:06.250',0.135,-0.174,-0.138,0.051,93.000
'0:06.260',0.150,-0.171,-0.135,0.036,93.000
'0:06.270',0.105,-0.168,-0.133,0.021,93.000
'0:06.280',0.140,-0.165,-0.130,0.006,93.000
'0:06.290',0.095,-0.161,-0.127,-0.009,93.000
'0:06.300',0.040,-0.158,-0.125,-0.025,93.000
'0:06.310',0.090,-0.156,-0.122,-0.038,93.000
'0:06.320',-0.010,-0.153,-0.120,-0.051,93.000
'0:06.330',-0.030,-0.151,-0.118,-0.065,93.000
'0:06.340',-0.005,-0.149,-0.116,-0.078,93.000
'0:06.350',-0.010,-0.147,-0.114,-0.091,93.000
'0:06.360',-0.030,-0.143,-0.111,-0.103,93.000
'0:06.370',-0.045,-0.139,-0.109,-0.114,93.000
'0:06.380',-0.055,-0.136,-0.106,-0.126,93.000
'0:06.390',-0.080,-0.132,-0.103,-0.137,93.000
'0:06.400',-0.025,-0.128,-0.101,-0.149,93.000
'0:06.410',-0.120,-0.125,-0.098,-0.158,93.000
'0:06.420',-0.170,-0.121,-0.096,-0.168,93.000
'0:06.430',-0.110,-0.118,-0.093,-0.178,93.000
'0:06.440',-0.145,-0.114,-0.090,-0.187,93.000
'0:06.450',-0.130,-0.111,-0.088,-0.197,93.000
'0:06.460',-0.075,-0.108,-0.086,-0.205,93.000
'0:06.470',-0.080,-0.106,-0.084,-0.214,93.000
'0:06.480',-0.130,-0.103,-0.082,-0.222,93.000
'0:06.490',-0.075,-0.101,-0.080,-0.231,93.000
'0:06.500',-0.020,-0.098,-0.077,-0.239,93.000
'0:06.510',-0.105,-0.095,-0.075,-0.246,93.000
'0:06.520',-0.125,-0.092,-0.072,-0.254,93.000
'0:06.530',-0.055,-0.088,-0.070,-0.261,93.000
'0:06.540',-0.080,-0.085,-0.067,-0.268,93.000
'0:06.550',-0.105,-0.082,-0.065,-0.275,93.000
'0:06.560',-0.075,-0.078,-0.062,-0.281,93.000
'0:06.570',-0.075,-0.074,-0.059,-0.288,93.000
'0:06.580',-0.070,-0.070,-0.056,-0.294,93.000
'0:06.590',-0.050,-0.066,-0.054,-0.300,93.000
'0:06.600',-0.080,-0.062,-0.051,-0.306,93.000
'0:06.610',-0.015,-0.059,-0.049,-0.311,93.000
'0:06.620',-0.010,-0.056,-0.046,-0.317,93.000
'0:06.630',0.110,-0.052,-0.044,-0.322,93.000
'0:06.640',0.140,-0.049,-0.042,-0.328,93.000
'0:06.650',0.265,-0.046,-0.040,-0.333,93.000
'0:06.660',0.170,-0.042,-0.036,-0.338,93.000
'0:06.670',0.175,-0.037,-0.033,-0.343,93.000
'0:06.680',0.175,-0.033,-0.030,-0.347,93.000
'0:06.690',-0.050,-0.029,-0.026,-0.352,93.000
'0:06.700',-0.115,-0.024,-0.023,-0.357,93.000
'0:06.710',-0.030,-0.020,-0.019,-0.361,93.000
'0:06.720',-0.035,-0.015,-0.016,-0.366,93.000
'0:06.730',-0.130,-0.011,-0.013,-0.370,93.000
'0:06.740',-0.160,-0.007,-0.009,-0.374,93.000
'0:06.750',-0.150,-0.003,-0.006,-0.379,93.000
'0:06.760',-0.435,0.001,-0.003,-0.383,93.000
'0:06.770',-0.780,0.004,-0.000,-0.386,93.000
'0:06.780',-0.730,0.007,0.003,-0.390,93.000
'0:06.790',-0.010,0.011,0.005,-0.394,93.000
'0:06.800',2.475,0.014,0.008,-0.398,93.000
'0:06.810',2.395,0.018,0.011,-0.402,93.000
'0:06.820',1.410,0.022,0.014,-0.405,93.000
'0:06.830',0.740,0.026,0.016,-0.408,93.000
'0:06.840',-0.065,0.029,0.019,-0.412,93.000
'0:06.850',-0.075,0.033,0.022,-0.415,93.000
'0:06.860',-0.125,0.037,0.025,-0.419,93.000
'0:06.870',-0.200,0.040,0.027,-0.422,93.000
'0:06.880',-0.205,0.043,0.030,-0.425,93.000
'0:06.890',-0.165,0.047,0.033,-0.428,93.000
'0:06.900',-0.160,0.050,0.036,-0.431,93.000
'0:06.910',-0.155,0.052,0.038,-0.434,93.000
'0:06.920',-0.140,0.055,0.041,-0.437,93.000
'0:06.930',-0.145,0.057,0.043,-0.439,93.000
'0:06.940',-0.200,0.060,0.046,-0.442,93.000
'0:06.950',-0.145,0.062,0.048,-0.445,93.000
'0:06.960',-0.165,0.066,0.050,-0.448,93.000
'0:06.970',-0.195,0.070,0.053,-0.450,93.000
'0:06.980',-0.220,0.073,0.055,-0.453,93.000
'0:06.990',-0.190,0.077,0.057,-0.455,93.000
'0:07.000',-0.190,0.081,0.059,-0.458,93.000
'0:07.010',-0.165,0.085,0.063,-0.460,93.000
'0:07.020',-0.195,0.090,0.066,-0.462,93.000
'0:07.030',-0.200,0.094,0.070,-0.465,93.000
'0:07.040',-0.200,0.099,0.073,-0.467,93.000
'0:07.050',-0.045,0.103,0.076,-0.469,93.000
'0:07.060',-0.080,0.107,0.077,-0.471,93.000
'0:07.070',-0.150,0.111,0.078,-0.473,93.000
'0:07.080',-0.015,0.115,0.079,-0.476,93.000
'0:07.090',0.055,0.119,0.079,-0.478,93.000
'0:07.100',0.055,0.123,0.080,-0.480,93.000
'0:07.110',0.145,0.126,0.080,-0.482,93.000
'0:07.120',0.095,0.130,0.079,-0.484,93.000
'0:07.130',0.085,0.134,0.078,-0.486,93.000
'0:07.140',0.105,0.137,0.078,-0.488,93.000
'0:07.150',0.090,0.141,0.077,-0.490,93.000
'0:07.160',0.065,0.145,0.076,-0.491,93.000
'0:07.170',-0.015,0.148,0.075,-0.493,93.000
'0:07.180',0.005,0.152,0.074,-0.495,93.000
'0:07.190',0.010,0.156,0.074,-0.496,93.000
'0:07.200',0.000,0.160,0.073,-0.498,93.000
'0:07.210',0.020,0.165,0.071,-0.499,93.000
'0:07.220',-0.035,0.169,0.068,-0.501,93.000
'0:07.230',-0.060,0.174,0.066,-0.503,93.000
'0:07.240',-0.080,0.179,0.064,-0.504,93.000
'0:07.250',-0.115,0.184,0.062,-0.506,93.000
'0:07.260',-0.150,0.188,0.061,-0.508,93.000
'0:07.270',-0.125,0.192,0.061,-0.509,93.000
'0:07.280',-0.070,0.196,0.061,-0.510,93.000
'0:07.290',-0.105,0.200,0.060,-0.512,93.000
'0:07.300',-0.150,0.203,0.060,-0.513,93.000
'0:07.310',-0.125,0.207,0.059,-0.515,93.000
'0:07.320',-0.120,0.210,0.058,-0.516,93.000
'0:07.330',-0.065,0.213,0.056,-0.518,93.000
'0:07.340',-0.095,0.217,0.055,-0.519,93.000
'0:07.350',-0.070,0.220,0.054,-0.520,93.000
'0:07.360',-0.060,0.223,0.054,-0.521,93.000
'0:07.370',-0.115,0.227,0.053,-0.523,93.000
'0:07.380',-0.125,0.230,0.052,-0.524,93.000
'0:07.390',-0.060,0.234,0.052,-0.525,93.000
'0:07.400',-0.125,0.237,0.051,-0.526,93.000
'0:07.410',-0.095,0.240,0.051,-0.527,93.000
'0:07.420',-0.085,0.243,0.052,-0.528,93.000
'0:07.430',-0.035,0.247,0.052,-0.529,93.000
'0:07.440',-0.045,0.250,0.052,-0.531,93.000
'0:07.450',-0.030,0.253,0.053,-0.532,93.000
'0:07.460',-0.085,0.256,0.051,-0.533,93.000
'0:07.470',-0.055,0.259,0.050,-0.533,93.000
'0:07.480',0.025,0.261,0.048,-0.534,93.000
'0:07.490',0.100,0.264,0.047,-0.535,93.000
'0:07.500',0.150,0.267,0.046,-0.536,93.000
'0:07.510',0.270,0.268,0.045,-0.537,93.000
'0:07.520',0.225,0.270,0.045,-0.537,93.000
'0:07.530',0.165,0.271,0.045,-0.538,93.000
'0:07.540',0.055,0.273,0.044,-0.538,93.000
'0:07.550',-0.045,0.274,0.044,-0.539,93.000
'0:07.560',-0.080,0.274,0.045,-0.539,93.000
'0:07.570',-0.090,0.274,0.047,-0.539,93.000
'0:07.580',-0.095,0.274,0.048,-0.540,93.000
'0:07.590',-0.095,0.274,0.050,-0.540,93.000
'0:07.600',-0.125,0.274,0.051,-0.540,93.000
'0:07.610',-0.130,0.272,0.053,-0.539,93.000
'0:07.620',-0.670,0.269,0.054,-0.538,93.000
'0:07.630',-0.825,0.267,0.055,-0.538,93.000
'0:07.640',-0.395,0.265,0.057,-0.537,93.000
'0:07.650',0.670,0.262,0.058,-0.536,93.000
'0:07.660',2.720,0.261,0.058,-0.531,93.000
'0:07.670',1.965,0.259,0.058,-0.526,93.000
'0:07.680',1.330,0.258,0.058,-0.522,93.000
'0:07.690',0.520,0.257,0.058,-0.517,93.000
'0:07.700',-0.170,0.256,0.057,-0.512,93.000
'0:07.710',-0.105,0.254,0.057,-0.503,93.000
'0:07.720',-0.205,0.253,0.056,-0.494,93.000
'0:07.730',-0.155,0.251,0.055,-0.486,93.000
'0:07.740',-0.175,0.250,0.054,-0.477,93.000
'0:07.750',-0.125,0.248,0.054,-0.468,93.000
'0:07.760',-0.195,0.245,0.053,-0.456,93.000
'0:07.770',-0.130,0.242,0.052,-0.445,93.000
'0:07.780',-0.150,0.239,0.052,-0.433,93.000
'0:07.790',-0.190,0.236,0.051,-0.422,93.000
'0:07.800',-0.175,0.233,0.051,-0.410,93.000
'0:07.810',-0.155,0.230,0.051,-0.397,93.000
'0:07.820',-0.195,0.227,0.051,-0.385,93.000
'0:07.830',-0.190,0.224,0.052,-0.372,93.000
'0:07.840',-0.185,0.222,0.052,-0.359,93.000
'0:07.850',-0.110,0.219,0.052,-0.346,93.000
'0:07.860',-0.205,0.215,0.053,-0.333,93.000
'0:07.870',-0.215,0.212,0.054,-0.320,93.000
'0:07.880',-0.205,0.209,0.055,-0.307,93.000
'0:07.890',-0.180,0.205,0.055,-0.294,93.000
'0:07.900',-0.155,0.202,0.056,-0.281,93.000
'0:07.910',-0.075,0.200,0.058,-0.269,93.000
'0:07.920',-0.130,0.198,0.059,-0.256,93.000
'0:07.930',-0.045,0.197,0.061,-0.243,93.000
'0:07.940',0.055,0.195,0.062,-0.231,93.000
'0:07.950',0.050,0.193,0.064,-0.218,93.000
'0:07.960',0.105,0.190,0.063,-0.206,93.000
'0:07.970',0.120,0.187,0.063,-0.193,93.000
'0:07.980',0.080,0.185,0.062,-0.181,93.000
'0:07.990',0.115,0.182,0.061,-0.169,93.000
'0:08.000',0.120,0.179,0.061,-0.156,93.000
'0:08.010',0.060,0.175,0.059,-0.144,93.000
'0:08.020',0.015,0.171,0.058,-0.132,93.000
'0:08.030',0.035,0.167,0.056,-0.120,93.000
'0:08.040',-0.005,0.163,0.055,-0.108,93.000
'0:08.050',0.000,0.159,0.053,-0.096,93.000
'0:08.060',0.025,0.157,0.056,-0.084,93.000
'0:08.070',-0.025,0.154,0.058,-0.073,93.000
'0:08.080',-0.065,0.151,0.060,-0.061,93.000
'0:08.090',-0.065,0.148,0.062,-0.050,93.000
'0:08.100',-0.095,0.146,0.064,-0.039,93.000
'0:08.110',-0.090,0.142,0.063,-0.028,93.000
'0:08.120',-0.095,0.139,0.062,-0.017,93.000
'0:08.130',-0.075,0.135,0.062,-0.007,93.000
'0:08.140',-0.100,0.132,0.061,0.004,93.000
'0:08.150',-0.165,0.128,0.060,0.015,93.000
'0:08.160',-0.125,0.124,0.060,0.025,93.000
'0:08.170',-0.115,0.120,0.059,0.035,93.000
'0:08.180',-0.075,0.117,0.059,0.046,93.000
'0:08.190',-0.085,0.113,0.058,0.056,93.000
'0:08.200',-0.135,0.109,0.058,0.066,93.000
'0:08.210',-0.145,0.106,0.059,0.075,93.000
'0:08.220',-0.055,0.103,0.060,0.085,93.000
'0:08.230',-0.085,0.101,0.061,0.094,93.000
'0:08.240',-0.135,0.098,0.062,0.104,93.000
'0:08.250',-0.095,0.095,0.063,0.113,93.000
'0:08.260',-0.045,0.092,0.061,0.122,93.000
'0:08.270',-0.055,0.089,0.060,0.130,93.000
'0:08.280',-0.120,0.086,0.058,0.139,93.000
'0:08.290',-0.105,0.083,0.057,0.148,93.000
'0:08.300',-0.110,0.080,0.055,0.156,93.000
'0:08.310',-0.050,0.077,0.053,0.164,93.000
'0:08.320',-0.075,0.075,0.052,0.172,93.000
'0:08.330',-0.075,0.072,0.050,0.181,93.000
'0:08.340',-0.035,0.069,0.048,0.189,93.000
'0:08.350',-0.015,0.067,0.046,0.197,93.000
'0:08.360',0.060,0.064,0.044,0.204,93.000
'0:08.370',0.120,0.062,0.042,0.211,93.000
'0:08.380',0.260,0.060,0.040,0.218,93.000
'0:08.390',0.160,0.058,0.038,0.225,93.000
'0:08.400',0.155,0.057,0.036,0.233,93.000
'0:08.410',0.080,0.054,0.034,0.239,93.000
'0:08.420',-0.045,0.051,0.032,0.246,93.000
'0:08.430',-0.065,0.049,0.030,0.252,93.000
'0:08.440',-0.070,0.046,0.028,0.259,93.000
'0:08.450',-0.115,0.044,0.026,0.266,93.000
'0:08.460',-0.095,0.041,0.025,0.271,93.000
'0:08.470',-0.175,0.038,0.023,0.277,93.000
'0:08.480',-0.145,0.035,0.021,0.282,93.000
'0:08.490',-0.535,0.033,0.019,0.288,93.000
'0:08.500',-0.740,0.030,0.017,0.294,93.000
'0:08.510',-0.660,0.029,0.016,0.299,93.000
'0:08.520',0.085,0.027,0.015,0.304,93.000
'0:08.530',2.405,0.025,0.014,0.309,93.000
'0:08.540',2.340,0.024,0.013,0.314,93.000
'0:08.550',1.415,0.022,0.012,0.319,93.000
'0:08.560',0.810,0.021,0.010,0.324,93.000
'0:08.570',0.010,0.019,0.009,0.328,93.000
'0:08.580',-0.130,0.018,0.007,0.333,93.000
'0:08.590',-0.170,0.016,0.006,0.338,93.000
'0:08.600',-0.175,0.015,0.004,0.342,93.000
'0:08.610',-0.220,0.013,0.003,0.346,93.000
'0:08.620',-0.160,0.011,0.001,0.351,93.000
'0:08.630',-0.145,0.009,-0.001,0.355,93.000
'0:08.640',-0.185,0.007,-0.002,0.359,93.000
'0:08.650',-0.170,0.004,-0.004,0.363,93.000
'0:08.660',-0.175,0.002,-0.005,0.367,93.000
'0:08.670',-0.210,-0.001,-0.007,0.370,93.000
'0:08.680',-0.195,-0.004,-0.009,0.374,93.000
'0:08.690',-0.220,-0.007,-0.010,0.378,93.000
'0:08.700',-0.125,-0.010,-0.012,0.381,93.000
'0:08.710',-0.190,-0.012,-0.014,0.384,93.000
'0:08.720',-0.195,-0.015,-0.017,0.388,93.000
'0:08.730',-0.185,-0.018,-0.019,0.391,93.000
'0:08.740',-0.220,-0.020,-0.021,0.394,93.000
'0:08.750',-0.190,-0.023,-0.024,0.398,93.000
'0:08.760',-0.165,-0.024,-0.025,0.401,93.000
'0:08.770',-0.200,-0.026,-0.026,0.404,93.000
'0:08.780',-0.110,-0.027,-0.028,0.407,93.000
'0:08.790',-0.095,-0.028,-0.029,0.410,93.000
'0:08.800',-0.050,-0.029,-0.030,0.413,93.000
'0:08.810',0.015,-0.032,-0.032,0.415,93.000
'0:08.820',0.045,-0.034,-0.033,0.418,93.000
'0:08.830',0.120,-0.036,-0.035,0.420,93.000
'0:08.840',0.190,-0.038,-0.036,0.423,93.000
'0:08.850',0.160,-0.040,-0.038,0.426,93.000
'0:08.860',0.095,-0.043,-0.040,0.428,93.000
'0:08.870',0.115,-0.045,-0.042,0.431,93.000
'0:08.880',0.075,-0.048,-0.043,0.433,93.000
'0:08.890',0.045,-0.050,-0.045,0.436,93.000
'0:08.900',0.030,-0.053,-0.047,0.439,93.000
'0:08.910',0.015,-0.054,-0.048,0.441,93.000
'0:08.920',0.020,-0.055,-0.049,0.444,93.000
'0:08.930',-0.030,-0.057,-0.050,0.446,93.000
'0:08.940',-0.025,-0.058,-0.051,0.448,93.000
'0:08.950',-0.005,-0.059,-0.052,0.451,94.000
'0:08.960',-0.100,-0.061,-0.053,0.453,94.000
'0:08.970',-0.065,-0.063,-0.054,0.455,94.000
'0:08.980',-0.055,-0.065,-0.056,0.458,94.000
'0:08.990',-0.090,-0.067,-0.057,0.460,94.000
'0:09.000',-0.120,-0.069,-0.058,0.462,94.000
'0:09.010',-0.100,-0.072,-0.060,0.465,94.000
'0:09.020',-0.090,-0.074,-0.061,0.467,94.000
'0:09.030',-0.175,-0.077,-0.063,0.469,94.000
'0:09.040',-0.125,-0.079,-0.065,0.471,94.000
'0:09.050',-0.110,-0.082,-0.066,0.474,94.000
'0:09.060',-0.115,-0.084,-0.068,0.476,94.000
'0:09.070',-0.100,-0.086,-0.070,0.478,94.000
'0:09.080',-0.115,-0.089,-0.071,0.480,94.000
'0:09.090',-0.025,-0.091,-0.073,0.482,94.000
'0:09.100',-0.050,-0.093,-0.075,0.484,94.000
'0:09.110',-0.125,-0.095,-0.076,0.485,94.000
'0:09.120',-0.135,-0.097,-0.077,0.487,94.000
'0:09.130',-0.095,-0.099,-0.079,0.489,94.000
'0:09.140',-0.005,-0.101,-0.081,0.491,94.000
'0:09.150',-0.095,-0.103,-0.082,0.493,94.000
'0:09.160',-0.115,-0.105,-0.084,0.495,94.000
'0:09.170',-0.100,-0.107,-0.086,0.497,94.000
'0:09.180',-0.045,-0.110,-0.088,0.498,94.000
'0:09.190',0.065,-0.112,-0.090,0.500,94.000
'0:09.200',-0.155,-0.115,-0.092,0.502,94.000
'0:09.210',-0.120,-0.117,-0.093,0.504,94.000
'0:09.220',-0.085,-0.118,-0.094,0.506,94.000
'0:09.230',-0.050,-0.120,-0.096,0.508,94.000
'0:09.240',0.005,-0.122,-0.097,0.510,94.000
'0:09.250',-0.105,-0.124,-0.098,0.512,94.000
'0:09.260',-0.075,-0.126,-0.100,0.513,94.000
'0:09.270',0.055,-0.128,-0.101,0.515,94.000
'0:09.280',0.185,-0.131,-0.103,0.516,94.000
'0:09.290',0.110,-0.133,-0.105,0.518,94.000
'0:09.300',0.195,-0.135,-0.106,0.520,94.000
'0:09.310',0.210,-0.137,-0.108,0.521,94.000
'0:09.320',0.155,-0.140,-0.110,0.523,94.000
'0:09.330',0.110,-0.142,-0.111,0.524,94.000
'0:09.340',0.000,-0.144,-0.113,0.526,94.000
'0:09.350',-0.025,-0.147,-0.115,0.527,94.000
'0:09.360',-0.095,-0.148,-0.116,0.528,94.000
'0:09.370',-0.110,-0.150,-0.117,0.530,94.000
'0:09.380',-0.080,-0.151,-0.118,0.531,94.000
'0:09.390',-0.165,-0.153,-0.119,0.533,94.000
'0:09.400',-0.130,-0.154,-0.120,0.534,94.000
'0:09.410',-0.440,-0.157,-0.122,0.535,94.000
'0:09.420',-0.710,-0.160,-0.124,0.536,94.000
'0:09.430',-0.725,-0.163,-0.126,0.537,94.000
'0:09.440',0.000,-0.166,-0.128,0.538,94.000
'0:09.450',2.250,-0.169,-0.130,0.539,94.000
'0:09.460',2.400,-0.171,-0.131,0.540,94.000
'0:09.470',1.410,-0.173,-0.133,0.541,94.000
'0:09.480',0.915,-0.175,-0.134,0.542,94.000
'0:09.490',0.055,-0.177,-0.136,0.542,94.000
'0:09.500',-0.125,-0.179,-0.138,0.543,94.000
'0:09.510',-0.175,-0.179,-0.138,0.544,94.000
'0:09.520',-0.135,-0.180,-0.139,0.545,94.000
'0:09.530',-0.135,-0.180,-0.139,0.546,94.000
'0:09.540',-0.195,-0.181,-0.140,0.546,94.000
'0:09.550',-0.220,-0.181,-0.141,0.547,94.000
'0:09.560',-0.145,-0.184,-0.142,0.548,94.000
'0:09.570',-0.095,-0.187,-0.144,0.548,94.000
'0:09.580',-0.180,-0.190,-0.146,0.549,94.000
'0:09.590',-0.195,-0.193,-0.147,0.549,94.000
'0:09.600',-0.135,-0.196,-0.149,0.550,94.000
'0:09.610',-0.150,-0.200,-0.151,0.550,94.000
'0:09.620',-0.185,-0.205,-0.153,0.551,94.000
'0:09.630',-0.180,-0.209,-0.155,0.551,94.000
'0:09.640',-0.140,-0.213,-0.158,0.551,94.000
'0:09.650',-0.150,-0.217,-0.160,0.552,94.000
'0:09.660',-0.200,-0.220,-0.161,0.552,94.000
'0:09.670',-0.230,-0.222,-0.163,0.552,94.000
'0:09.680',-0.155,-0.225,-0.164,0.552,94.000
'0:09.690',-0.065,-0.227,-0.166,0.552,94.000
'0:09.700',-0.135,-0.230,-0.167,0.553,94.000
'0:09.710',-0.135,-0.232,-0.168,0.553,94.000
'0:09.720',-0.030,-0.233,-0.169,0.553,94.000
'0:09.730',0.080,-0.235,-0.170,0.553,94.000
'0:09.740',0.050,-0.236,-0.171,0.553,94.000
'0:09.750',0.120,-0.238,-0.172,0.554,94.000
'0:09.760',0.160,-0.239,-0.172,0.554,94.000
'0:09.770',0.255,-0.240,-0.173,0.554,94.000
'0:09.780',0.155,-0.240,-0.174,0.554,94.000
'0:09.790',0.085,-0.241,-0.174,0.554,94.000
'0:09.800',0.125,-0.242,-0.175,0.554,94.000
'0:09.810',0.095,-0.242,-0.176,0.553,94.000
'0:09.820',0.030,-0.242,-0.176,0.553,94.000
'0:09.830',0.030,-0.242,-0.176,0.553,94.000
'0:09.840',0.095,-0.243,-0.177,0.553,94.000
'0:09.850',0.050,-0.243,-0.177,0.552,94.000
'0:09.860',-0.065,-0.243,-0.178,0.552,94.000
'0:09.870',-0.040,-0.244,-0.178,0.551,94.000
'0:09.880',0.010,-0.244,-0.178,0.551,94.000
'0:09.890',-0.075,-0.244,-0.179,0.550,94.000
'0:09.900',-0.025,-0.245,-0.179,0.550,94.000
'0:09.910',-0.100,-0.244,-0.180,0.549,94.000
'0:09.920',-0.060,-0.244,-0.180,0.547,94.000
'0:09.930',-0.130,-0.243,-0.180,0.546,94.000
'0:09.940',-0.115,-0.243,-0.180,0.545,94.000
'0:09.950',-0.040,-0.243,-0.181,0.544,94.000
'0:09.960',-0.075,-0.242,-0.180,0.542,94.000
'0:09.970',-0.080,-0.242,-0.180,0.539,94.000
'0:09.980',-0.105,-0.242,-0.180,0.537,94.000
'0:09.990',-0.080,-0.241,-0.180,0.535,94.000
'0:10.000',-0.055,-0.241,-0.180,0.533,94.000
'0:10.010',-0.015,-0.240,-0.179,0.528,94.000
'0:10.020',-0.095,-0.239,-0.178,0.523,94.000
'0:10.030',-0.055,-0.238,-0.178,0.517,94.000
'0:10.040',-0.055,-0.238,-0.177,0.512,94.000
'0:10.050',-0.040,-0.237,-0.176,0.507,94.000
'0:10.060',-0.070,-0.234,-0.174,0.498,94.000
'0:10.070',-0.045,-0.231,-0.172,0.489,94.000
'0:10.080',0.025,-0.228,-0.170,0.479,94.000
'0:10.090',-0.120,-0.226,-0.167,0.470,94.000
'0:10.100',-0.125,-0.223,-0.165,0.461,94.000
'0:10.110',-0.070,-0.221,-0.163,0.447,94.000
'0:10.120',-0.005,-0.219,-0.162,0.434,94.000
'0:10.130',-0.105,-0.216,-0.160,0.420,94.000
'0:10.140',-0.115,-0.214,-0.158,0.407,94.000
'0:10.150',-0.055,-0.212,-0.156,0.394,94.000
'0:10.160',0.000,-0.209,-0.154,0.377,94.000
'0:10.170',-0.085,-0.206,-0.152,0.360,94.000
'0:10.180',-0.155,-0.203,-0.149,0.344,94.000
'0:10.190',-0.090,-0.200,-0.147,0.327,94.000
'0:10.200',-0.070,-0.197,-0.145,0.310,94.000
'0:10.210',0.040,-0.193,-0.142,0.292,94.000
'0:10.220',-0.025,-0.188,-0.139,0.273,94.000
'0:10.230',0.090,-0.184,-0.135,0.255,94.000
'0:10.240',0.185,-0.179,-0.132,0.236,94.000
'0:10.250',0.335,-0.175,-0.129,0.218,94.000
'0:10.260',0.170,-0.172,-0.127,0.199,94.000
'0:10.270',0.140,-0.169,-0.124,0.180,94.000
'0:10.280',0.060,-0.166,-0.122,0.161,94.000
'0:10.290',-0.025,-0.163,-0.120,0.142,94.000
'0:10.300',-0.050,-0.160,-0.117,0.124,94.000
'0:10.310',-0.090,-0.157,-0.115,0.106,94.000
'0:10.320',-0.095,-0.154,-0.112,0.088,94.000
'0:10.330',-0.120,-0.151,-0.110,0.070,94.000
'0:10.340',-0.100,-0.148,-0.107,0.052,94.000
'0:10.350',-0.105,-0.145,-0.105,0.034,94.000
'0:10.360',-0.550,-0.142,-0.102,0.017,94.000
'0:10.370',-0.730,-0.139,-0.100,0.001,94.000
'0:10.380',-0.630,-0.136,-0.097,-0.015,94.000
'0:10.390',0.205,-0.133,-0.095,-0.032,94.000
'0:10.400',2.490,-0.130,-0.092,-0.048,94.000
'0:10.410',2.235,-0.126,-0.088,-0.063,94.000
'0:10.420',1.365,-0.121,-0.085,-0.077,94.000
'0:10.430',0.755,-0.116,-0.081,-0.092,94.000
'0:10.440',0.010,-0.111,-0.077,-0.106,94.000
'0:10.450',-0.120,-0.106,-0.073,-0.121,94.000
'0:10.460',-0.150,-0.101,-0.069,-0.134,94.000
'0:10.470',-0.135,-0.096,-0.065,-0.146,94.000
'0:10.480',-0.200,-0.091,-0.061,-0.159,94.000
'0:10.490',-0.175,-0.086,-0.057,-0.172,94.000
'0:10.500',-0.175,-0.080,-0.053,-0.184,94.000
'0:10.510',-0.170,-0.078,-0.050,-0.195,94.000
'0:10.520',-0.170,-0.076,-0.048,-0.206,94.000
'0:10.530',-0.135,-0.073,-0.045,-0.217,94.000
'0:10.540',-0.160,-0.071,-0.043,-0.227,94.000
'0:10.550',-0.175,-0.069,-0.041,-0.238,94.000
'0:10.560',-0.190,-0.065,-0.037,-0.247,94.000
'0:10.570',-0.180,-0.061,-0.035,-0.256,94.000
'0:10.580',-0.245,-0.058,-0.032,-0.266,94.000
'0:10.590',-0.200,-0.054,-0.029,-0.275,94.000
'0:10.600',-0.215,-0.051,-0.026,-0.284,94.000
'0:10.610',-0.180,-0.045,-0.022,-0.292,94.000
'0:10.620',-0.175,-0.040,-0.018,-0.300,94.000
'0:10.630',-0.210,-0.035,-0.015,-0.308,94.000
'0:10.640',-0.115,-0.029,-0.011,-0.316,94.000
'0:10.650',-0.110,-0.024,-0.008,-0.324,94.000
'0:10.660',-0.200,-0.019,-0.004,-0.331,94.000
'0:10.670',-0.095,-0.014,0.000,-0.337,94.000
'0:10.680',-0.015,-0.009,0.004,-0.344,94.000
'0:10.690',0.095,-0.004,0.008,-0.351,94.000
'0:10.700',0.110,0.002,0.011,-0.358,94.000
'0:10.710',0.150,0.006,0.015,-0.364,94.000
'0:10.720',0.225,0.010,0.018,-0.370,94.000
'0:10.730',0.095,0.014,0.022,-0.375,94.000
'0:10.740',0.055,0.018,0.025,-0.381,94.000
'0:10.750',0.035,0.022,0.028,-0.387,94.000
'0:10.760',0.065,0.026,0.032,-0.392,94.000
'0:10.770',0.070,0.031,0.035,-0.397,94.000
'0:10.780',0.005,0.035,0.039,-0.402,94.000
'0:10.790',-0.020,0.040,0.042,-0.407,94.000
'0:10.800',0.020,0.044,0.046,-0.412,94.000
'0:10.810',0.065,0.050,0.050,-0.416,94.000
'0:10.820',-0.010,0.056,0.053,-0.420,94.000
'0:10.830',-0.085,0.061,0.057,-0.424,94.000
'0:10.840',-0.045,0.067,0.061,-0.429,94.000
'0:10.850',-0.065,0.073,0.065,-0.433,94.000
'0:10.860',-0.115,0.077,0.069,-0.437,94.000
'0:10.870',-0.120,0.082,0.072,-0.440,94.000
'0:10.880',-0.110,0.086,0.076,-0.444,94.000
'0:10.890',-0.130,0.090,0.079,-0.448,94.000
'0:10.900',-0.105,0.095,0.083,-0.451,94.000
'0:10.910',-0.100,0.099,0.086,-0.454,94.000
'0:10.920',-0.070,0.103,0.089,-0.458,94.000
'0:10.930',-0.130,0.107,0.092,-0.461,94.000
'0:10.940',-0.140,0.111,0.095,-0.464,94.000
'0:10.950',-0.100,0.115,0.099,-0.467,94.000
'0:10.960',-0.095,0.119,0.101,-0.470,94.000
'0:10.970',-0.055,0.123,0.104,-0.473,94.000
'0:10.980',-0.095,0.127,0.107,-0.476,94.000
'0:10.990',-0.075,0.131,0.110,-0.479,94.000
'0:11.000',0.000,0.136,0.113,-0.481,94.000
'0:11.010',-0.110,0.140,0.116,-0.484,94.000
'0:11.020',-0.130,0.145,0.120,-0.487,94.000
'0:11.030',-0.075,0.149,0.123,-0.489,94.000
'0:11.040',-0.050,0.154,0.127,-0.492,94.000
'0:11.050',-0.085,0.158,0.130,-0.495,94.000
'0:11.060',-0.060,0.163,0.133,-0.497,94.000
'0:11.070',-0.110,0.167,0.136,-0.500,94.000
'0:11.080',-0.080,0.172,0.139,-0.503,94.000
'0:11.090',-0.030,0.176,0.142,-0.505,94.000
'0:11.100',-0.030,0.181,0.145,-0.508,94.000
'0:11.110',-0.130,0.184,0.146,-0.511,94.000
'0:11.120',-0.065,0.187,0.147,-0.513,94.000
'0:11.130',-0.060,0.191,0.148,-0.515,94.000
'0:11.140',-0.030,0.194,0.149,-0.518,94.000
'0:11.150',0.075,0.198,0.150,-0.521,94.000
'0:11.160',0.115,0.202,0.152,-0.523,94.000
'0:11.170',0.215,0.205,0.153,-0.525,94.000
'0:11.180',0.230,0.209,0.155,-0.528,94.000
'0:11.190',0.140,0.213,0.156,-0.530,94.000
'0:11.200',0.180,0.217,0.158,-0.532,94.000
'0:11.210',-0.070,0.221,0.159,-0.534,94.000
'0:11.220',-0.050,0.224,0.159,-0.536,94.000
'0:11.230',-0.135,0.228,0.160,-0.538,94.000
'0:11.240',-0.080,0.232,0.161,-0.541,94.000
'0:11.250',-0.110,0.235,0.162,-0.543,94.000
'0:11.260',-0.060,0.239,0.163,-0.545,94.000
'0:11.270',-0.100,0.242,0.165,-0.547,94.000
'0:11.280',-0.405,0.245,0.166,-0.549,94.000
'0:11.290',-0.690,0.248,0.168,-0.550,94.000
'0:11.300',-0.860,0.251,0.169,-0.552,94.000
'0:11.310',-0.240,0.255,0.170,-0.554,94.000
'0:11.320',1.700,0.258,0.171,-0.556,94.000
'0:11.330',2.725,0.262,0.172,-0.558,94.000
'0:11.340',1.630,0.265,0.173,-0.559,94.000
'0:11.350',1.220,0.269,0.175,-0.561,94.000
'0:11.360',0.165,0.273,0.174,-0.563,94.000
'0:11.370',-0.160,0.276,0.173,-0.564,94.000
'0:11.380',-0.110,0.280,0.172,-0.565,94.000
'0:11.390',-0.185,0.284,0.171,-0.567,94.000
'0:11.400',-0.205,0.287,0.170,-0.568,94.000
'0:11.410',-0.210,0.289,0.173,-0.569,94.000
'0:11.420',-0.140,0.292,0.177,-0.571,94.000
'0:11.430',-0.150,0.294,0.180,-0.572,94.000
'0:11.440',-0.190,0.296,0.184,-0.573,94.000
'0:11.450',-0.185,0.298,0.188,-0.574,94.000
'0:11.460',-0.110,0.300,0.189,-0.575,94.000
'0:11.470',-0.220,0.302,0.191,-0.576,94.000
'0:11.480',-0.165,0.304,0.192,-0.577,94.000
'0:11.490',-0.160,0.306,0.194,-0.578,94.000
'0:11.500',-0.160,0.308,0.195,-0.579,94.000
'0:11.510',-0.235,0.311,0.192,-0.580,94.000
'0:11.520',-0.205,0.314,0.190,-0.580,94.000
'0:11.530',-0.165,0.317,0.186,-0.581,94.000
'0:11.540',-0.230,0.320,0.184,-0.582,94.000
'0:11.550',-0.185,0.323,0.181,-0.582,94.000
'0:11.560',-0.230,0.326,0.179,-0.583,94.000
'0:11.570',-0.160,0.330,0.178,-0.584,94.000
'0:11.580',-0.155,0.333,0.177,-0.584,94.000
'0:11.590',-0.135,0.336,0.176,-0.585,94.000
'0:11.600',-0.055,0.339,0.175,-0.585,94.000
'0:11.610',-0.005,0.343,0.175,-0.586,94.000
'0:11.620',0.070,0.347,0.174,-0.586,94.000
'0:11.630',0.160,0.351,0.173,-0.586,94.000
'0:11.640',0.135,0.355,0.172,-0.587,94.000
'0:11.650',0.150,0.359,0.172,-0.587,94.000
'0:11.660',0.090,0.361,0.170,-0.587,94.000
'0:11.670',0.020,0.363,0.169,-0.588,94.000
'0:11.680',0.055,0.366,0.167,-0.588,94.000
'0:11.690',0.050,0.368,0.165,-0.588,94.000
'0:11.700',0.060,0.371,0.164,-0.588,94.000
'0:11.710',0.005,0.371,0.164,-0.588,94.000
'0:11.720',0.035,0.371,0.164,-0.588,94.000
'0:11.730',0.035,0.372,0.164,-0.587,94.000
'0:11.740',0.035,0.372,0.164,-0.587,94.000
'0:11.750',-0.085,0.373,0.164,-0.587,94.000
'0:11.760',-0.085,0.371,0.164,-0.586,94.000
'0:11.770',-0.055,0.370,0.163,-0.584,94.000
'0:11.780',-0.075,0.369,0.163,-0.583,94.000
'0:11.790',-0.075,0.368,0.163,-0.582,94.000
'0:11.800',-0.045,0.367,0.163,-0.581,94.000
'0:11.810',-0.125,0.364,0.161,-0.576,94.000
'0:11.820',-0.125,0.361,0.159,-0.571,94.000
'0:11.830',-0.090,0.358,0.158,-0.566,94.000
'0:11.840',-0.070,0.355,0.156,-0.561,94.000
'0:11.850',-0.150,0.352,0.155,-0.556,94.000
'0:11.860',-0.065,0.350,0.154,-0.546,94.000
'0:11.870',-0.025,0.347,0.153,-0.536,94.000
'0:11.880',-0.110,0.344,0.152,-0.526,94.000
'0:11.890',-0.125,0.342,0.152,-0.516,94.000
'0:11.900',-0.085,0.339,0.151,-0.506,94.000
'0:11.910',-0.065,0.337,0.150,-0.494,94.000
'0:11.920',-0.070,0.335,0.149,-0.481,94.000
'0:11.930',-0.070,0.333,0.148,-0.469,94.000
'0:11.940',-0.010,0.331,0.147,-0.456,94.000
'0:11.950',-0.075,0.329,0.147,-0.444,94.000
'0:11.960',-0.090,0.326,0.146,-0.430,94.000
'0:11.970',-0.080,0.322,0.146,-0.416,94.000
'0:11.980',-0.115,0.318,0.145,-0.402,94.000
'0:11.990',-0.105,0.314,0.145,-0.388,94.000
'0:12.000',-0.080,0.311,0.145,-0.374,94.000
'0:12.010',-0.020,0.307,0.146,-0.360,94.000
'0:12.020',-0.060,0.304,0.147,-0.346,94.000
'0:12.030',-0.085,0.301,0.148,-0.332,94.000
'0:12.040',0.040,0.298,0.149,-0.317,94.000
'0:12.050',-0.055,0.295,0.149,-0.303,94.000
'0:12.060',-0.090,0.291,0.150,-0.289,94.000
'0:12.070',0.040,0.287,0.150,-0.275,94.000
'0:12.080',0.185,0.283,0.150,-0.261,94.000
'0:12.090',0.185,0.279,0.150,-0.247,94.000
'0:12.100',0.195,0.275,0.150,-0.233,94.000
'0:12.110',0.175,0.270,0.151,-0.219,94.000
'0:12.120',0.130,0.265,0.151,-0.206,94.000
'0:12.130',-0.030,0.259,0.152,-0.192,94.000
'0:12.140',-0.060,0.254,0.153,-0.178,94.000
'0:12.150',-0.090,0.249,0.154,-0.165,94.000
'0:12.160',-0.105,0.244,0.155,-0.151,94.000
'0:12.170',-0.150,0.239,0.157,-0.138,94.000
'0:12.180',-0.060,0.235,0.159,-0.125,94.000
'0:12.190',-0.145,0.230,0.161,-0.112,94.000
'0:12.200',-0.335,0.226,0.162,-0.099,94.000
'0:12.210',-0.660,0.221,0.162,-0.086,94.000
'0:12.220',-0.865,0.217,0.161,-0.074,94.000
'0:12.230',-0.175,0.213,0.161,-0.062,94.000
'0:12.240',1.875,0.208,0.160,-0.050,94.000
'0:12.250',2.625,0.204,0.160,-0.037,94.000
'0:12.260',1.500,0.201,0.156,-0.026,94.000
'0:12.270',1.105,0.198,0.152,-0.014,94.000
'0:12.280',0.175,0.196,0.148,-0.003,94.000
'0:12.290',-0.145,0.193,0.144,0.009,94.000
'0:12.300',-0.075,0.190,0.141,0.020,94.000
'0:12.310',-0.155,0.186,0.138,0.031,94.000
'0:12.320',-0.190,0.183,0.136,0.043,94.000
'0:12.330',-0.140,0.179,0.134,0.054,94.000
'0:12.340',-0.145,0.176,0.131,0.065,94.000
'0:12.350',-0.225,0.172,0.129,0.076,94.000
'0:12.360',-0.180,0.167,0.127,0.086,94.000
'0:12.370',-0.155,0.161,0.126,0.096,94.000
'0:12.380',-0.160,0.156,0.124,0.107,94.000
'0:12.390',-0.210,0.150,0.122,0.117,94.000
'0:12.400',-0.130,0.145,0.120,0.127,94.000
'0:12.410',-0.125,0.140,0.117,0.137,94.000
'0:12.420',-0.210,0.136,0.113,0.146,94.000
'0:12.430',-0.245,0.132,0.110,0.155,94.000
'0:12.440',-0.205,0.127,0.106,0.165,94.000
'0:12.450',-0.140,0.123,0.103,0.174,94.000
'0:12.460',-0.195,0.119,0.100,0.183,94.000
'0:12.470',-0.275,0.116,0.097,0.191,94.000
'0:12.480',-0.150,0.113,0.094,0.200,94.000
'0:12.490',-0.125,0.110,0.091,0.209,94.000
'0:12.500',-0.175,0.106,0.088,0.217,94.000
'0:12.510',-0.135,0.102,0.085,0.225,94.000
'0:12.520',-0.050,0.098,0.082,0.233,94.000
'0:12.530',0.090,0.094,0.078,0.241,94.000
'0:12.540',0.060,0.090,0.075,0.250,94.000
'0:12.550',0.085,0.086,0.071,0.258,94.000
'0:12.560',0.145,0.081,0.068,0.265,94.000
'0:12.570',0.265,0.077,0.065,0.272,94.000
'0:12.580',0.115,0.072,0.062,0.280,94.000
'0:12.590',0.015,0.068,0.059,0.287,94.000
'0:12.600',0.060,0.063,0.056,0.294,94.000
'0:12.610',0.110,0.059,0.053,0.301,94.000
'0:12.620',0.110,0.056,0.050,0.308,94.000
'0:12.630',-0.030,0.052,0.047,0.315,94.000
'0:12.640',-0.010,0.048,0.044,0.322,94.000
'0:12.650',0.025,0.045,0.041,0.329,94.000
'0:12.660',0.000,0.041,0.039,0.336,94.000
'0:12.670',-0.035,0.038,0.036,0.342,94.000
'0:12.680',-0.010,0.035,0.033,0.349,94.000
'0:12.690',0.015,0.032,0.030,0.355,94.000
'0:12.700',-0.145,0.029,0.027,0.362,94.000
'0:12.710',-0.120,0.024,0.023,0.368,94.000
'0:12.720',-0.110,0.019,0.020,0.374,94.000
'0:12.730',-0.015,0.014,0.016,0.379,94.000
'0:12.740',-0.055,0.009,0.013,0.385,94.000
'0:12.750',-0.160,0.004,0.009,0.391,94.000
'0:12.760',-0.130,-0.001,0.006,0.397,94.000
'0:12.770',-0.015,-0.006,0.002,0.402,94.000
'0:12.780',-0.020,-0.011,-0.002,0.408,94.000
'0:12.790',-0.130,-0.015,-0.005,0.413,94.000
'0:12.800',-0.125,-0.020,-0.009,0.419,94.000
'0:12.810',-0.035,-0.023,-0.012,0.424,94.000
'0:12.820',-0.005,-0.026,-0.015,0.429,94.000
'0:12.830',-0.100,-0.029,-0.017,0.434,94.000
'0:12.840',-0.085,-0.033,-0.020,0.439,94.000
'0:12.850',-0.020,-0.036,-0.023,0.444,94.000
'0:12.860',-0.040,-0.040,-0.027,0.449,94.000
'0:12.870',-0.110,-0.044,-0.030,0.453,94.000
'0:12.880',-0.080,-0.048,-0.034,0.458,94.000
'0:12.890',-0.045,-0.052,-0.037,0.463,94.000
'0:12.900',-0.025,-0.057,-0.040,0.467,94.000
'0:12.910',-0.115,-0.060,-0.043,0.471,94.000
'0:12.920',-0.090,-0.063,-0.045,0.475,94.000
'0:12.930',-0.050,-0.067,-0.047,0.480,94.000
'0:12.940',-0.010,-0.070,-0.049,0.484,94.000
'0:12.950',-0.085,-0.073,-0.051,0.488,94.000
'0:12.960',-0.120,-0.077,-0.053,0.492,93.000
'0:12.970',-0.065,-0.080,-0.056,0.495,93.000
'0:12.980',-0.095,-0.083,-0.058,0.499,93.000
'0:12.990',-0.075,-0.087,-0.061,0.503,93.000
'0:13.000',-0.085,-0.090,-0.063,0.507,93.000
'0:13.010',-0.030,-0.095,-0.066,0.510,93.000
'0:13.020',0.105,-0.099,-0.070,0.514,93.000
'0:13.030',0.090,-0.103,-0.073,0.517,93.000
'0:13.040',0.120,-0.107,-0.077,0.521,93.000
'0:13.050',0.230,-0.112,-0.081,0.524,93.000
'0:13.060',0.185,-0.115,-0.083,0.527,93.000
'0:13.070',0.190,-0.118,-0.085,0.530,93.000
'0:13.080',0.015,-0.121,-0.088,0.534,93.000
'0:13.090',-0.060,-0.125,-0.090,0.537,93.000
'0:13.100',-0.100,-0.128,-0.093,0.540,93.000
'0:13.110',-0.005,-0.131,-0.095,0.543,93.000
'0:13.120',-0.185,-0.135,-0.097,0.545,93.000
'0:13.130',-0.145,-0.138,-0.099,0.548,93.000
'0:13.140',-0.125,-0.142,-0.102,0.551,93.000
'0:13.150',-0.115,-0.145,-0.104,0.554,93.000
'0:13.160',-0.635,-0.149,-0.106,0.556,93.000
'0:13.170',-0.795,-0.153,-0.109,0.558,93.000
'0:13.180',-0.400,-0.157,-0.112,0.560,93.000
'0:13.190',0.590,-0.160,-0.114,0.563,93.000
'0:13.200',2.655,-0.164,-0.117,0.565,93.000
'0:13.210',1.935,-0.167,-0.119,0.567,93.000
'0:13.220',1.290,-0.169,-0.121,0.569,93.000
'0:13.230',0.620,-0.171,-0.123,0.571,93.000
'0:13.240',-0.080,-0.173,-0.125,0.573,93.000
'0:13.250',-0.075,-0.176,-0.127,0.575,93.000
'0:13.260',-0.115,-0.178,-0.129,0.577,93.000
'0:13.270',-0.180,-0.181,-0.131,0.578,93.000
'0:13.280',-0.190,-0.183,-0.133,0.580,93.000
'0:13.290',-0.190,-0.186,-0.135,0.582,93.000
'0:13.300',-0.200,-0.189,-0.137,0.583,93.000
'0:13.310',-0.150,-0.193,-0.138,0.584,93.000
'0:13.320',-0.130,-0.197,-0.140,0.586,93.000
'0:13.330',-0.110,-0.201,-0.142,0.587,93.000
'0:13.340',-0.205,-0.205,-0.143,0.588,93.000
'0:13.350',-0.190,-0.209,-0.145,0.589,93.000
'0:13.360',-0.110,-0.213,-0.146,0.590,93.000
'0:13.370',-0.110,-0.216,-0.148,0.591,93.000
'0:13.380',-0.235,-0.220,-0.149,0.592,93.000
'0:13.390',-0.225,-0.224,-0.151,0.593,93.000
'0:13.400',-0.200,-0.227,-0.152,0.594,93.000
'0:13.410',-0.065,-0.231,-0.153,0.595,93.000
'0:13.420',-0.200,-0.235,-0.154,0.596,93.000
'0:13.430',-0.250,-0.239,-0.154,0.596,93.000
'0:13.440',-0.160,-0.243,-0.155,0.597,93.000
'0:13.450',-0.050,-0.247,-0.156,0.598,93.000
'0:13.460',-0.180,-0.249,-0.157,0.598,93.000
'0:13.470',-0.075,-0.252,-0.159,0.599,93.000
'0:13.480',-0.005,-0.254,-0.161,0.599,93.000
'0:13.490',0.085,-0.257,-0.162,0.600,93.000
'0:13.500',0.220,-0.259,-0.164,0.600,93.000
'0:13.510',0.100,-0.260,-0.166,0.600,93.000
'0:13.520',0.125,-0.260,-0.167,0.601,93.000
'0:13.530',0.245,-0.261,-0.169,0.601,93.000
'0:13.540',0.050,-0.261,-0.170,0.601,93.000
'0:13.550',0.020,-0.262,-0.172,0.601,93.000
'0:13.560',0.035,-0.263,-0.172,0.601,93.000
'0:13.570',0.100,-0.263,-0.173,0.601,93.000
'0:13.580',0.015,-0.264,-0.173,0.601,93.000
'0:13.590',-0.020,-0.264,-0.174,0.601,93.000
'0:13.600',-0.010,-0.265,-0.174,0.601,93.000
'0:13.610',0.035,-0.265,-0.175,0.601,93.000
'0:13.620',0.065,-0.266,-0.176,0.601,93.000
'0:13.630',-0.125,-0.266,-0.176,0.601,93.000
'0:13.640',-0.080,-0.267,-0.177,0.600,93.000
'0:13.650',-0.035,-0.267,-0.178,0.600,93.000
'0:13.660',-0.025,-0.268,-0.179,0.599,93.000
'0:13.670',-0.150,-0.268,-0.180,0.599,93.000
'0:13.680',-0.130,-0.269,-0.180,0.598,93.000
'0:13.690',-0.115,-0.269,-0.181,0.598,93.000
'0:13.700',-0.055,-0.270,-0.182,0.597,93.000
'0:13.710',-0.090,-0.269,-0.183,0.596,93.000
'0:13.720',-0.135,-0.269,-0.184,0.594,93.000
'0:13.730',-0.065,-0.268,-0.186,0.593,93.000
'0:13.740',-0.055,-0.268,-0.187,0.592,93.000
'0:13.750',-0.075,-0.267,-0.188,0.591,93.000
'0:13.760',-0.120,-0.266,-0.189,0.589,93.000
'0:13.770',-0.070,-0.266,-0.189,0.588,93.000
'0:13.780',-0.080,-0.265,-0.190,0.586,93.000
'0:13.790',-0.035,-0.264,-0.190,0.585,93.000
'0:13.800',-0.100,-0.263,-0.191,0.583,93.000
'0:13.810',-0.060,-0.263,-0.190,0.580,93.000
'0:13.820',-0.065,-0.263,-0.190,0.577,93.000
'0:13.830',-0.080,-0.263,-0.190,0.575,93.000
'0:13.840',-0.065,-0.263,-0.189,0.572,93.000
'0:13.850',-0.030,-0.263,-0.189,0.569,93.000
'0:13.860',-0.075,-0.261,-0.187,0.563,93.000
'0:13.870',-0.080,-0.259,-0.185,0.556,93.000
'0:13.880',-0.055,-0.258,-0.183,0.550,93.000
'0:13.890',-0.045,-0.256,-0.181,0.544,93.000
'0:13.900',-0.100,-0.254,-0.179,0.537,93.000
'0:13.910',-0.065,-0.251,-0.177,0.526,93.000
'0:13.920',-0.085,-0.247,-0.175,0.515,93.000
'0:13.930',0.020,-0.244,-0.173,0.504,93.000
'0:13.940',-0.050,-0.241,-0.172,0.493,93.000
'0:13.950',-0.100,-0.238,-0.170,0.482,93.000
'0:13.960',-0.045,-0.234,-0.168,0.467,93.000
'0:13.970',0.010,-0.231,-0.166,0.452,93.000
'0:13.980',0.065,-0.227,-0.164,0.436,93.000
'0:13.990',0.100,-0.224,-0.162,0.421,93.000
'0:14.000',0.245,-0.221,-0.160,0.406,93.000
'0:14.010',0.250,-0.217,-0.157,0.388,93.000
'0:14.020',0.200,-0.213,-0.154,0.370,93.000
'0:14.030',0.115,-0.209,-0.151,0.353,93.000
'0:14.040',0.020,-0.205,-0.148,0.335,93.000
'0:14.050',-0.070,-0.201,-0.145,0.317,93.000
'0:14.060',-0.065,-0.199,-0.143,0.298,93.000
'0:14.070',-0.115,-0.197,-0.141,0.279,93.000
'0:14.080',-0.135,-0.195,-0.139,0.260,93.000
'0:14.090',-0.065,-0.193,-0.136,0.241,93.000
'0:14.100',-0.125,-0.191,-0.134,0.222,93.000
'0:14.110',-0.320,-0.188,-0.132,0.203,93.000
'0:14.120',-0.670,-0.185,-0.129,0.183,93.000
'0:14.130',-0.800,-0.183,-0.127,0.164,93.000
'0:14.140',-0.335,-0.180,-0.125,0.145,93.000
'0:14.150',1.410,-0.177,-0.122,0.126,93.000
'0:14.160',2.810,-0.172,-0.119,0.107,93.000
'0:14.170',1.690,-0.168,-0.116,0.089,93.000
'0:14.180',1.135,-0.163,-0.113,0.071,93.000
'0:14.190',0.355,-0.158,-0.109,0.052,93.000
'0:14.200',-0.120,-0.154,-0.106,0.034,93.000
'0:14.210',-0.150,-0.148,-0.102,0.018,93.000
'0:14.220',-0.205,-0.143,-0.098,0.001,93.000
'0:14.230',-0.115,-0.138,-0.094,-0.016,93.000
'0:14.240',-0.135,-0.132,-0.090,-0.032,93.000
'0:14.250',-0.145,-0.127,-0.086,-0.049,93.000
'0:14.260',-0.190,-0.123,-0.082,-0.064,93.000
'0:14.270',-0.195,-0.120,-0.079,-0.079,93.000
'0:14.280',-0.150,-0.116,-0.075,-0.093,93.000
'0:14.290',-0.120,-0.112,-0.072,-0.108,93.000
'0:14.300',-0.180,-0.108,-0.069,-0.123,93.000
'0:14.310',-0.175,-0.106,-0.067,-0.136,93.000
'0:14.320',-0.180,-0.104,-0.064,-0.148,93.000
'0:14.330',-0.080,-0.101,-0.062,-0.161,93.000
'0:14.340',-0.250,-0.099,-0.060,-0.174,93.000
'0:14.350',-0.200,-0.097,-0.058,-0.187,93.000
'0:14.360',-0.210,-0.093,-0.055,-0.198,93.000
'0:14.370',-0.245,-0.089,-0.052,-0.209,93.000
'0:14.380',-0.190,-0.085,-0.050,-0.220,93.000
'0:14.390',-0.180,-0.081,-0.047,-0.232,93.000
'0:14.400',-0.195,-0.077,-0.045,-0.243,93.000
'0:14.410',-0.135,-0.072,-0.041,-0.253,93.000
'0:14.420',-0.080,-0.068,-0.038,-0.262,93.000
'0:14.430',-0.010,-0.063,-0.034,-0.272,93.000
'0:14.440',-0.015,-0.058,-0.030,-0.282,93.000
'0:14.450',0.040,-0.053,-0.027,-0.291,93.000
'0:14.460',0.105,-0.049,-0.023,-0.300,93.000
'0:14.470',0.125,-0.044,-0.019,-0.308,93.000
'0:14.480',0.115,-0.039,-0.016,-0.316,93.000
'0:14.490',0.095,-0.035,-0.012,-0.324,93.000
'0:14.500',0.095,-0.030,-0.008,-0.333,93.000
'0:14.510',0.055,-0.026,-0.005,-0.340,93.000
'0:14.520',0.095,-0.022,-0.002,-0.347,93.000
'0:14.530',0.000,-0.018,0.001,-0.354,93.000
'0:14.540',-0.015,-0.014,0.004,-0.361,93.000
'0:14.550',0.015,-0.010,0.008,-0.368,93.000
'0:14.560',-0.025,-0.005,0.012,-0.374,93.000
'0:14.570',0.000,0.000,0.016,-0.381,93.000
'0:14.580',-0.030,0.005,0.020,-0.387,93.000
'0:14.590',-0.020,0.011,0.024,-0.393,93.000
'0:14.600',-0.060,0.016,0.028,-0.399,93.000
'0:14.610',-0.040,0.020,0.031,-0.405,93.000
'0:14.620',-0.020,0.024,0.035,-0.410,93.000
'0:14.630',-0.135,0.029,0.038,-0.415,93.000
'0:14.640',-0.135,0.033,0.042,-0.421,93.000
'0:14.650',-0.100,0.038,0.045,-0.426,93.000
'0:14.660',-0.110,0.042,0.048,-0.431,93.000
'0:14.670',-0.105,0.045,0.051,-0.436,93.000
'0:14.680',-0.065,0.049,0.054,-0.440,93.000
'0:14.690',-0.045,0.053,0.057,-0.445,93.000
'0:14.700',-0.115,0.057,0.060,-0.450,93.000
'0:14.710',-0.110,0.062,0.064,-0.454,93.000
'0:14.720',-0.045,0.066,0.067,-0.458,93.000
'0:14.730',-0.090,0.071,0.071,-0.462,93.000
'0:14.740',-0.085,0.076,0.075,-0.466,93.000
'0:14.750',-0.070,0.081,0.078,-0.470,93.000
'0:14.760',-0.115,0.084,0.081,-0.474,93.000
'0:14.770',-0.065,0.087,0.084,-0.477,93.000
'0:14.780',-0.020,0.091,0.087,-0.481,93.000
'0:14.790',-0.085,0.094,0.089,-0.485,93.000
'0:14.800',-0.145,0.098,0.092,-0.488,93.000
'0:14.810',-0.065,0.101,0.095,-0.492,93.000
'0:14.820',-0.080,0.104,0.098,-0.495,93.000
'0:14.830',-0.115,0.108,0.101,-0.498,93.000
'0:14.840',-0.030,0.111,0.104,-0.501,93.000
'0:14.850',-0.095,0.114,0.107,-0.504,93.000
'0:14.860',-0.170,0.118,0.110,-0.507,93.000
'0:14.870',-0.055,0.122,0.113,-0.510,93.000
'0:14.880',-0.035,0.126,0.116,-0.512,93.000
'0:14.890',-0.045,0.129,0.119,-0.515,93.000
'0:14.900',0.010,0.133,0.122,-0.518,93.000
'0:14.910',0.065,0.137,0.125,-0.520,93.000
'0:14.920',0.185,0.141,0.128,-0.523,93.000
'0:14.930',0.280,0.144,0.131,-0.525,93.000
'0:14.940',0.140,0.148,0.134,-0.528,93.000
'0:14.950',0.130,0.152,0.137,-0.530,93.000
'0:14.960',0.045,0.157,0.140,-0.532,92.000
'0:14.970',-0.050,0.162,0.144,-0.534,92.000
'0:14.980',-0.095,0.167,0.147,-0.536,92.000
'0:14.990',-0.050,0.171,0.151,-0.538,92.000
'0:15.000',-0.175,0.176,0.154,-0.540,92.000
'0:15.010',-0.110,0.180,0.158,-0.542,92.000
'0:15.020',-0.155,0.184,0.161,-0.544,92.000
'0:15.030',-0.205,0.188,0.165,-0.546,92.000
'0:15.040',-0.695,0.192,0.168,-0.548,92.000
'0:15.050',-0.775,0.196,0.172,-0.549,92.000
'0:15.060',-0.425,0.200,0.175,-0.551,92.000
'0:15.070',0.850,0.204,0.178,-0.553,92.000
'0:15.080',2.835,0.208,0.181,-0.554,92.000
'0:15.090',1.950,0.212,0.184,-0.556,92.000
'0:15.100',1.285,0.216,0.186,-0.558,92.000
'0:15.110',0.435,0.220,0.190,-0.559,92.000
'0:15.120',-0.150,0.225,0.193,-0.560,92.000
'0:15.130',-0.130,0.229,0.197,-0.561,92.000
'0:15.140',-0.185,0.234,0.200,-0.563,92.000
'0:15.150',-0.145,0.238,0.204,-0.564,92.000
'0:15.160',-0.185,0.241,0.207,-0.565,92.000
'0:15.170',-0.160,0.244,0.209,-0.566,92.000
'0:15.180',-0.150,0.248,0.212,-0.568,92.000
'0:15.190',-0.105,0.251,0.215,-0.569,92.000
'0:15.200',-0.185,0.254,0.218,-0.570,92.000
'0:15.210',-0.135,0.257,0.218,-0.571,92.000
'0:15.220',-0.190,0.261,0.220,-0.572,92.000
'0:15.230',-0.190,0.264,0.220,-0.573,92.000
'0:15.240',-0.240,0.267,0.221,-0.574,92.000
'0:15.250',-0.155,0.270,0.222,-0.575,92.000
'0:15.260',-0.165,0.274,0.224,-0.575,92.000
'0:15.270',-0.210,0.277,0.226,-0.576,92.000
'0:15.280',-0.240,0.280,0.228,-0.577,92.000
'0:15.290',-0.160,0.283,0.230,-0.578,92.000
'0:15.300',-0.210,0.287,0.232,-0.578,92.000
'0:15.310',-0.145,0.291,0.230,-0.579,92.000
'0:15.320',-0.235,0.295,0.228,-0.580,92.000
'0:15.330',-0.195,0.299,0.225,-0.580,92.000
'0:15.340',-0.160,0.303,0.223,-0.581,92.000
'0:15.350',-0.090,0.307,0.221,-0.582,92.000
'0:15.360',-0.020,0.311,0.219,-0.582,92.000
'0:15.370',-0.015,0.316,0.217,-0.582,92.000
'0:15.380',0.095,0.320,0.215,-0.583,92.000
'0:15.390',0.180,0.324,0.212,-0.583,92.000
'0:15.400',0.040,0.328,0.210,-0.583,92.000
'0:15.410',0.070,0.332,0.209,-0.584,92.000
'0:15.420',0.070,0.335,0.209,-0.584,92.000
'0:15.430',0.045,0.339,0.208,-0.584,92.000
'0:15.440',0.040,0.342,0.207,-0.585,92.000
'0:15.450',0.060,0.346,0.206,-0.585,92.000
'0:15.460',0.015,0.349,0.203,-0.585,92.000
'0:15.470',-0.105,0.352,0.200,-0.586,92.000
'0:15.480',-0.090,0.356,0.197,-0.586,92.000
'0:15.490',-0.035,0.359,0.195,-0.586,92.000
'0:15.500',-0.055,0.362,0.192,-0.586,92.000
'0:15.510',-0.115,0.364,0.190,-0.586,92.000
'0:15.520',-0.120,0.365,0.187,-0.586,92.000
'0:15.530',-0.190,0.367,0.185,-0.586,92.000
'0:15.540',0.015,0.369,0.183,-0.586,92.000
'0:15.550',0.030,0.370,0.181,-0.586,92.000
'0:15.560',0.200,0.371,0.179,-0.586,92.000
'0:15.570',0.040,0.372,0.177,-0.585,92.000
'0:15.580',0.165,0.373,0.175,-0.585,92.000
'0:15.590',-0.130,0.374,0.174,-0.585,92.000
'0:15.600',-0.060,0.375,0.172,-0.585,92.000
'0:15.610',-0.050,0.375,0.172,-0.584,92.000
'0:15.620',-0.005,0.376,0.173,-0.583,92.000
'0:15.630',-0.100,0.377,0.173,-0.583,92.000
'0:15.640',-0.095,0.378,0.174,-0.582,92.000
'0:15.650',-0.060,0.378,0.174,-0.581,92.000
'0:15.660',-0.030,0.377,0.174,-0.580,92.000
'0:15.670',-0.050,0.377,0.173,-0.578,92.000
'0:15.680',-0.085,0.376,0.173,-0.577,92.000
'0:15.690',0.050,0.375,0.173,-0.575,92.000
'0:15.700',-0.125,0.374,0.172,-0.573,92.000
'0:15.710',-0.065,0.373,0.169,-0.569,92.000
'0:15.720',-0.055,0.371,0.167,-0.564,92.000
'0:15.730',-0.075,0.369,0.164,-0.560,92.000
'0:15.740',-0.075,0.368,0.161,-0.555,92.000
'0:15.750',-0.100,0.366,0.158,-0.550,92.000
'0:15.760',-0.070,0.364,0.156,-0.542,92.000
'0:15.770',-0.005,0.362,0.155,-0.533,92.000
'0:15.780',-0.025,0.361,0.153,-0.525,92.000
'0:15.790',-0.105,0.359,0.151,-0.516,92.000
'0:15.800',0.040,0.357,0.149,-0.508,92.000
'0:15.810',0.080,0.355,0.150,-0.497,92.000
'0:15.820',0.140,0.353,0.150,-0.485,92.000
'0:15.830',0.265,0.351,0.150,-0.474,92.000
'0:15.840',0.290,0.349,0.150,-0.463,92.000
'0:15.850',0.130,0.347,0.150,-0.452,92.000
'0:15.860',0.180,0.345,0.150,-0.440,92.000
'0:15.870',-0.060,0.343,0.150,-0.427,92.000
'0:15.880',-0.105,0.340,0.149,-0.415,92.000
'0:15.890',-0.220,0.338,0.149,-0.403,92.000
'0:15.900',-0.115,0.336,0.149,-0.390,92.000
'0:15.910',-0.140,0.333,0.148,-0.377,92.000
'0:15.920',-0.165,0.330,0.147,-0.364,92.000
'0:15.930',-0.275,0.327,0.146,-0.351,92.000
'0:15.940',-0.345,0.324,0.146,-0.339,92.000
'0:15.950',-0.710,0.321,0.145,-0.326,92.000
'0:15.960',-0.825,0.319,0.144,-0.312,91.000
'0:15.970',-0.305,0.316,0.142,-0.299,91.000
'0:15.980',1.480,0.314,0.141,-0.286,91.000
'0:15.990',2.685,0.312,0.140,-0.272,91.000
'0:16.000',1.745,0.309,0.139,-0.259,91.000
'0:16.010',1.215,0.306,0.137,-0.245,91.000
'0:16.020',0.370,0.303,0.135,-0.232,91.000
'0:16.030',0.040,0.300,0.133,-0.218,91.000
'0:16.040',0.150,0.298,0.132,-0.205,91.000
'0:16.050',-0.080,0.295,0.130,-0.191,91.000
'0:16.060',-0.035,0.292,0.131,-0.179,91.000
'0:16.070',0.025,0.288,0.133,-0.166,91.000
'0:16.080',-0.105,0.285,0.134,-0.153,91.000
'0:16.090',-0.075,0.282,0.135,-0.140,91.000
'0:16.100',-0.120,0.279,0.137,-0.127,91.000
'0:16.110',-0.055,0.276,0.139,-0.116,91.000
'0:16.120',-0.330,0.273,0.141,-0.104,91.000
'0:16.130',-0.155,0.269,0.143,-0.092,91.000
'0:16.140',-0.250,0.266,0.145,-0.080,91.000
'0:16.150',-0.205,0.263,0.147,-0.068,91.000
'0:16.160',-0.480,0.260,0.145,-0.057,91.000
'0:16.170',-0.365,0.257,0.143,-0.047,91.000
'0:16.180',-0.285,0.254,0.141,-0.036,91.000
'0:16.190',-0.270,0.251,0.140,-0.025,91.000
'0:16.200',-0.355,0.248,0.138,-0.014,91.000
'0:16.210',-0.390,0.244,0.139,-0.004,91.000
'0:16.220',-0.295,0.241,0.139,0.006,91.000
'0:16.230',-0.220,0.238,0.140,0.016,91.000
'0:16.240',-0.285,0.235,0.141,0.026,91.000
'0:16.250',-0.285,0.233,0.141,0.036,91.000
'0:16.260',-0.210,0.228,0.144,0.045,91.000
'0:16.270',-0.130,0.224,0.147,0.055,91.000
'0:16.280',-0.080,0.219,0.150,0.065,91.000
'0:16.290',-0.050,0.215,0.153,0.075,91.000
'0:16.300',0.000,0.210,0.156,0.084,91.000
'0:16.310',0.060,0.207,0.154,0.094,91.000
'0:16.320',0.185,0.204,0.152,0.104,91.000
'0:16.330',0.040,0.201,0.151,0.113,91.000
'0:16.340',0.075,0.198,0.149,0.123,91.000
'0:16.350',0.020,0.195,0.147,0.132,91.000
'0:16.360',0.100,0.192,0.145,0.141,91.000
'0:16.370',0.020,0.190,0.142,0.150,91.000
'0:16.380',0.110,0.188,0.140,0.159,91.000
'0:16.390',-0.065,0.185,0.137,0.168,91.000
'0:16.400',0.110,0.183,0.135,0.177,91.000
'0:16.410',-0.100,0.180,0.134,0.185,91.000
'0:16.420',0.115,0.177,0.133,0.193,91.000
'0:16.430',-0.095,0.174,0.132,0.202,91.000
'0:16.440',-0.075,0.171,0.131,0.210,91.000
'0:16.450',-0.165,0.168,0.130,0.218,91.000
'0:16.460',-0.080,0.164,0.129,0.226,91.000
'0:16.470',-0.105,0.161,0.128,0.233,91.000
'0:16.480',-0.060,0.158,0.127,0.241,91.000
'0:16.490',-0.075,0.155,0.126,0.248,91.000
'0:16.500',0.005,0.151,0.125,0.256,91.000
'0:16.510',0.090,0.148,0.122,0.263,91.000
'0:16.520',-0.095,0.144,0.119,0.270,91.000
'0:16.530',-0.015,0.141,0.117,0.277,91.000
'0:16.540',-0.035,0.138,0.114,0.283,91.000
'0:16.550',0.010,0.134,0.111,0.290,91.000
'0:16.560',-0.070,0.131,0.109,0.297,91.000
'0:16.570',-0.110,0.127,0.106,0.303,91.000
'0:16.580',-0.095,0.124,0.104,0.309,91.000
'0:16.590',-0.015,0.121,0.101,0.315,91.000
'0:16.600',-0.005,0.117,0.099,0.322,91.000
'0:16.610',-0.095,0.114,0.096,0.327,91.000
'0:16.620',0.005,0.111,0.094,0.333,91.000
'0:16.630',-0.125,0.107,0.091,0.339,91.000
'0:16.640',-0.085,0.104,0.089,0.345,91.000
'0:16.650',-0.075,0.101,0.086,0.351,91.000
'0:16.660',-0.025,0.097,0.084,0.356,91.000
'0:16.670',-0.070,0.093,0.081,0.362,91.000
'0:16.680',-0.030,0.090,0.078,0.367,91.000
'0:16.690',-0.070,0.086,0.075,0.373,91.000
'0:16.700',-0.055,0.082,0.072,0.378,91.000
'0:16.710',-0.090,0.080,0.070,0.383,91.000
'0:16.720',0.020,0.078,0.069,0.389,91.000
'0:16.730',0.105,0.075,0.067,0.394,91.000
'0:16.740',0.120,0.073,0.065,0.399,91.000
'0:16.750',0.185,0.071,0.063,0.404,91.000
'0:16.760',0.275,0.067,0.061,0.409,91.000
'0:16.770',0.225,0.064,0.058,0.413,91.000
'0:16.780',0.220,0.061,0.056,0.418,91.000
'0:16.790',0.120,0.057,0.053,0.423,91.000
'0:16.800',0.045,0.054,0.051,0.428,91.000
'0:16.810',0.000,0.050,0.048,0.432,91.000
'0:16.820',0.075,0.047,0.046,0.436,91.000
'0:16.830',0.120,0.043,0.043,0.441,91.000
'0:16.840',-0.030,0.039,0.040,0.445,91.000
'0:16.850',-0.040,0.036,0.038,0.449,91.000
'0:16.860',-0.045,0.033,0.035,0.453,91.000
'0:16.870',-0.415,0.030,0.033,0.457,91.000
'0:16.880',-0.850,0.028,0.031,0.461,91.000
'0:16.890',-0.350,0.025,0.029,0.465,91.000
'0:16.900',0.870,0.023,0.026,0.469,91.000
'0:16.910',2.665,0.021,0.024,0.473,91.000
'0:16.920',1.755,0.019,0.022,0.477,91.000
'0:16.930',1.320,0.017,0.020,0.481,91.000
'0:16.940',0.345,0.015,0.018,0.485,91.000
'0:16.950',-0.270,0.013,0.016,0.488,91.000
'0:16.960',-0.265,0.010,0.014,0.492,91.000
'0:16.970',-0.175,0.008,0.012,0.496,91.000
'0:16.980',-0.320,0.006,0.010,0.499,91.000
'0:16.990',-0.405,0.004,0.008,0.503,91.000
'0:17.000',-0.295,0.002,0.007,0.507,91.000
'0:17.010',-0.260,-0.003,0.004,0.510,91.000
'0:17.020',-0.180,-0.007,0.001,0.513,91.000
'0:17.030',-0.270,-0.011,-0.002,0.516,91.000
'0:17.040',-0.060,-0.015,-0.005,0.520,91.000
'0:17.050',-0.055,-0.019,-0.008,0.523,91.000
'0:17.060',0.020,-0.023,-0.010,0.526,91.000
'0:17.070',-0.065,-0.026,-0.013,0.529,91.000
'0:17.080',-0.040,-0.030,-0.015,0.532,91.000
'0:17.090',-0.130,-0.033,-0.018,0.535,91.000
'0:17.100',-0.130,-0.036,-0.020,0.537,91.000
'0:17.110',-0.205,-0.038,-0.022,0.540,91.000
'0:17.120',-0.150,-0.041,-0.024,0.543,91.000
'0:17.130',-0.190,-0.043,-0.026,0.545,91.000
'0:17.140',-0.120,-0.045,-0.028,0.548,91.000
'0:17.150',-0.105,-0.047,-0.029,0.550,91.000
'0:17.160',-0.085,-0.049,-0.031,0.552,91.000
'0:17.170',-0.100,-0.052,-0.033,0.554,91.000
'0:17.180',-0.145,-0.054,-0.035,0.557,91.000
'0:17.190',-0.095,-0.056,-0.037,0.559,91.000
'0:17.200',0.000,-0.058,-0.039,0.561,91.000
'0:17.210',0.025,-0.060,-0.040,0.563,91.000
'0:17.220',0.100,-0.062,-0.042,0.564,91.000
'0:17.230',0.090,-0.064,-0.043,0.566,91.000
'0:17.240',0.135,-0.066,-0.045,0.568,91.000
'0:17.250',0.090,-0.068,-0.046,0.570,91.000
'0:17.260',0.080,-0.069,-0.048,0.572,91.000
'0:17.270',-0.005,-0.071,-0.049,0.573,91.000
'0:17.280',0.050,-0.073,-0.051,0.575,91.000
'0:17.290',0.035,-0.075,-0.053,0.576,91.000
'0:17.300',0.050,-0.077,-0.054,0.578,91.000
'0:17.310',0.065,-0.080,-0.056,0.579,91.000
'0:17.320',0.040,-0.082,-0.058,0.581,91.000
'0:17.330',-0.020,-0.085,-0.060,0.582,91.000
'0:17.340',0.045,-0.087,-0.062,0.584,91.000
'0:17.350',-0.070,-0.089,-0.064,0.585,91.000
'0:17.360',-0.120,-0.091,-0.066,0.586,91.000
'0:17.370',-0.190,-0.093,-0.067,0.588,91.000
'0:17.380',-0.145,-0.095,-0.069,0.589,91.000
'0:17.390',-0.170,-0.097,-0.070,0.590,91.000
'0:17.400',-0.295,-0.099,-0.072,0.591,91.000
'0:17.410',-0.345,-0.100,-0.073,0.592,91.000
'0:17.420',-0.350,-0.102,-0.075,0.594,91.000
'0:17.430',-0.190,-0.104,-0.077,0.595,91.000
'0:17.440',-0.180,-0.106,-0.078,0.596,91.000
'0:17.450',-0.125,-0.108,-0.080,0.597,91.000
'0:17.460',-0.130,-0.112,-0.083,0.598,91.000
'0:17.470',-0.080,-0.115,-0.085,0.599,91.000
'0:17.480',-0.080,-0.119,-0.088,0.600,91.000
'0:17.490',-0.100,-0.122,-0.091,0.600,91.000
'0:17.500',-0.070,-0.126,-0.094,0.601,91.000
'0:17.510',-0.085,-0.128,-0.096,0.602,91.000
'0:17.520',-0.120,-0.131,-0.098,0.603,91.000
'0:17.530',-0.070,-0.133,-0.100,0.604,91.000
'0:17.540',-0.095,-0.136,-0.102,0.605,91.000
'0:17.550',-0.055,-0.138,-0.104,0.605,91.000
'0:17.560',-0.045,-0.140,-0.105,0.606,91.000
'0:17.570',-0.090,-0.141,-0.107,0.607,91.000
'0:17.580',-0.050,-0.143,-0.108,0.607,91.000
'0:17.590',-0.060,-0.145,-0.109,0.608,91.000
'0:17.600',-0.045,-0.146,-0.111,0.609,91.000
'0:17.610',-0.005,-0.148,-0.112,0.609,91.000
'0:17.620',-0.025,-0.150,-0.113,0.610,91.000
'0:17.630',-0.065,-0.152,-0.115,0.611,91.000
'0:17.640',-0.035,-0.154,-0.116,0.611,91.000
'0:17.650',0.140,-0.156,-0.117,0.612,91.000
'0:17.660',0.105,-0.158,-0.118,0.613,91.000
'0:17.670',0.170,-0.160,-0.120,0.613,91.000
'0:17.680',0.300,-0.162,-0.121,0.614,91.000
'0:17.690',0.320,-0.164,-0.123,0.614,91.000
'0:17.700',0.200,-0.165,-0.124,0.615,91.000
'0:17.710',0.290,-0.169,-0.126,0.615,91.000
'0:17.720',0.165,-0.172,-0.128,0.615,91.000
'0:17.730',0.130,-0.175,-0.130,0.615,91.000
'0:17.740',0.205,-0.178,-0.132,0.616,91.000
'0:17.750',0.060,-0.181,-0.134,0.616,91.000
'0:17.760',-0.210,-0.184,-0.136,0.616,91.000
'0:17.770',-0.110,-0.187,-0.138,0.617,91.000
'0:17.780',-0.120,-0.190,-0.140,0.617,91.000
'0:17.790',-0.500,-0.193,-0.142,0.617,91.000
'0:17.800',-0.770,-0.196,-0.144,0.618,91.000
'0:17.810',-0.750,-0.198,-0.145,0.618,91.000
'0:17.820',-0.005,-0.200,-0.146,0.618,91.000
'0:17.830',2.225,-0.201,-0.147,0.618,91.000
'0:17.840',2.335,-0.203,-0.148,0.618,91.000
'0:17.850',1.390,-0.205,-0.149,0.618,91.000
'0:17.860',0.890,-0.206,-0.149,0.618,91.000
'0:17.870',0.050,-0.207,-0.150,0.618,91.000
'0:17.880',-0.020,-0.208,-0.151,0.619,91.000
'0:17.890',-0.190,-0.209,-0.151,0.619,91.000
'0:17.900',-0.200,-0.210,-0.152,0.619,91.000
'0:17.910',-0.165,-0.211,-0.153,0.619,91.000
'0:17.920',-0.145,-0.213,-0.154,0.619,91.000
'0:17.930',-0.160,-0.214,-0.156,0.619,91.000
'0:17.940',-0.155,-0.216,-0.157,0.619,91.000
'0:17.950',-0.200,-0.217,-0.159,0.619,91.000
'0:17.960',-0.160,-0.221,-0.160,0.619,90.000
'0:17.970',-0.115,-0.225,-0.162,0.619,90.000
'0:17.980',-0.080,-0.229,-0.163,0.618,90.000
'0:17.990',-0.250,-0.233,-0.165,0.618,90.000
'0:18.000',-0.215,-0.237,-0.166,0.618,90.000
'0:18.010',-0.140,-0.240,-0.167,0.618,90.000
'0:18.020',-0.185,-0.242,-0.168,0.618,90.000
'0:18.030',-0.200,-0.245,-0.169,0.617,90.000
'0:18.040',-0.200,-0.247,-0.170,0.617,90.000
'0:18.050',-0.210,-0.250,-0.171,0.617,90.000
'0:18.060',-0.195,-0.251,-0.172,0.617,90.000
'0:18.070',-0.160,-0.252,-0.173,0.616,90.000
'0:18.080',-0.180,-0.253,-0.175,0.616,90.000
'0:18.090',-0.180,-0.254,-0.176,0.616,90.000
'0:18.100',-0.130,-0.256,-0.177,0.615,90.000
'0:18.110',-0.040,-0.258,-0.178,0.615,90.000
'0:18.120',-0.015,-0.259,-0.179,0.615,90.000
'0:18.130',0.045,-0.261,-0.179,0.614,90.000
'0:18.140',0.100,-0.263,-0.180,0.614,90.000
'0:18.150',0.120,-0.265,-0.181,0.614,90.000
'0:18.160',0.115,-0.267,-0.182,0.613,90.000
'0:18.170',0.075,-0.269,-0.182,0.613,90.000
'0:18.180',0.060,-0.271,-0.183,0.612,90.000
'0:18.190',0.030,-0.273,-0.184,0.612,90.000
'0:18.200',0.005,-0.276,-0.185,0.612,90.000
'0:18.210',0.035,-0.278,-0.186,0.611,90.000
'0:18.220',0.060,-0.280,-0.187,0.611,90.000
'0:18.230',-0.020,-0.282,-0.188,0.610,90.000
'0:18.240',-0.045,-0.284,-0.189,0.610,90.000
'0:18.250',-0.040,-0.286,-0.190,0.609,90.000
'0:18.260',0.000,-0.288,-0.191,0.609,90.000
'0:18.270',-0.040,-0.289,-0.191,0.608,90.000
'0:18.280',-0.085,-0.291,-0.191,0.608,90.000
'0:18.290',-0.075,-0.293,-0.191,0.608,90.000
'0:18.300',-0.060,-0.294,-0.191,0.607,90.000
'0:18.310',-0.110,-0.296,-0.191,0.607,90.000
'0:18.320',-0.135,-0.298,-0.191,0.606,90.000
'0:18.330',-0.095,-0.300,-0.191,0.606,90.000
'0:18.340',-0.070,-0.303,-0.191,0.605,90.000
'0:18.350',-0.140,-0.305,-0.191,0.605,90.000
'0:18.360',-0.105,-0.307,-0.191,0.605,90.000
'0:18.370',-0.060,-0.309,-0.191,0.604,90.000
'0:18.380',-0.040,-0.311,-0.190,0.604,90.000
'0:18.390',-0.105,-0.313,-0.190,0.603,90.000
'0:18.400',-0.090,-0.315,-0.190,0.603,90.000
'0:18.410',-0.115,-0.319,-0.190,0.602,90.000
'0:18.420',-0.045,-0.322,-0.190,0.601,90.000
'0:18.430',-0.045,-0.325,-0.190,0.601,90.000
'0:18.440',-0.040,-0.328,-0.189,0.600,90.000
'0:18.450',-0.070,-0.332,-0.189,0.599,90.000
'0:18.460',-0.015,-0.333,-0.190,0.598,90.000
'0:18.470',-0.135,-0.333,-0.190,0.598,90.000
'0:18.480',-0.145,-0.334,-0.190,0.597,90.000
'0:18.490',-0.125,-0.335,-0.191,0.596,90.000
'0:18.500',-0.025,-0.336,-0.191,0.595,90.000
'0:18.510',-0.135,-0.336,-0.192,0.594,90.000
'0:18.520',-0.115,-0.336,-0.192,0.593,90.000
'0:18.530',-0.180,-0.336,-0.193,0.593,90.000
'0:18.540',-0.475,-0.336,-0.194,0.592,90.000
'0:18.550',-0.350,-0.335,-0.194,0.591,90.000
'0:18.560',-0.360,-0.336,-0.195,0.590,90.000
'0:18.570',-0.100,-0.337,-0.196,0.588,90.000
'0:18.580',0.095,-0.338,-0.197,0.587,90.000
'0:18.590',0.140,-0.339,-0.199,0.586,90.000
'0:18.600',0.130,-0.340,-0.200,0.584,90.000
'0:18.610',0.340,-0.339,-0.201,0.583,90.000
'0:18.620',0.315,-0.338,-0.202,0.581,90.000
'0:18.630',0.165,-0.337,-0.204,0.579,90.000
'0:18.640',0.100,-0.336,-0.205,0.577,90.000
'0:18.650',0.005,-0.336,-0.207,0.576,90.000
'0:18.660',-0.060,-0.335,-0.207,0.573,90.000
'0:18.670',-0.040,-0.334,-0.207,0.571,90.000
'0:18.680',-0.065,-0.333,-0.207,0.569,90.000
'0:18.690',-0.095,-0.332,-0.208,0.567,90.000
'0:18.700',-0.010,-0.331,-0.208,0.565,90.000
'0:18.710',-0.030,-0.330,-0.208,0.560,90.000
'0:18.720',-0.425,-0.329,-0.207,0.555,90.000
'0:18.730',-0.725,-0.328,-0.207,0.550,90.000
'0:18.740',-0.680,-0.326,-0.207,0.546,90.000
'0:18.750',0.030,-0.325,-0.207,0.541,90.000
'0:18.760',2.220,-0.323,-0.207,0.532,90.000
'0:18.770',2.480,-0.321,-0.206,0.523,90.000
'0:18.780',1.485,-0.318,-0.206,0.514,90.000
'0:18.790',1.000,-0.316,-0.206,0.505,90.000
'0:18.800',0.090,-0.314,-0.206,0.496,90.000
'0:18.810',-0.045,-0.310,-0.206,0.482,90.000
'0:18.820',-0.095,-0.307,-0.205,0.469,90.000
'0:18.830',-0.065,-0.304,-0.205,0.456,90.000
'0:18.840',-0.100,-0.300,-0.204,0.442,90.000
'0:18.850',-0.110,-0.297,-0.204,0.429,90.000
'0:18.860',-0.050,-0.295,-0.201,0.412,90.000
'0:18.870',-0.140,-0.293,-0.199,0.395,90.000
'0:18.880',-0.105,-0.290,-0.196,0.378,90.000
'0:18.890',-0.095,-0.288,-0.193,0.361,90.000
'0:18.900',-0.325,-0.286,-0.190,0.344,90.000
'0:18.910',-0.245,-0.285,-0.187,0.325,90.000
'0:18.920',-0.235,-0.284,-0.184,0.306,90.000
'0:18.930',-0.200,-0.283,-0.181,0.286,90.000
'0:18.940',-0.110,-0.282,-0.178,0.267,90.000
'0:18.950',-0.230,-0.280,-0.175,0.248,90.000
'0:18.960',-0.265,-0.276,-0.174,0.228,90.000
'0:18.970',-0.275,-0.272,-0.172,0.208,90.000
'0:18.980',-0.200,-0.268,-0.170,0.188,90.000
'0:18.990',-0.270,-0.263,-0.168,0.168,90.000
'0:19.000',-0.160,-0.259,-0.167,0.147,90.000
'0:19.010',-0.260,-0.254,-0.164,0.128,90.000
'0:19.020',-0.270,-0.249,-0.162,0.108,90.000
'0:19.030',-0.125,-0.244,-0.160,0.088,90.000
'0:19.040',-0.050,-0.239,-0.158,0.068,90.000
'0:19.050',-0.040,-0.234,-0.156,0.049,90.000
'0:19.060',0.045,-0.231,-0.153,0.030,90.000
'0:19.070',0.175,-0.227,-0.150,0.012,90.000
'0:19.080',0.255,-0.224,-0.147,-0.007,90.000
'0:19.090',0.100,-0.220,-0.144,-0.025,90.000
'0:19.100',0.080,-0.217,-0.141,-0.044,90.000
'0:19.110',0.120,-0.211,-0.138,-0.060,90.000
'0:19.120',0.095,-0.206,-0.135,-0.077,90.000
'0:19.130',0.035,-0.201,-0.132,-0.094,90.000
'0:19.140',-0.040,-0.196,-0.129,-0.110,90.000
'0:19.150',0.000,-0.191,-0.126,-0.127,90.000
'0:19.160',0.055,-0.186,-0.123,-0.142,90.000
'0:19.170',-0.030,-0.181,-0.120,-0.156,90.000
'0:19.180',-0.120,-0.177,-0.117,-0.171,90.000
'0:19.190',0.015,-0.172,-0.114,-0.186,90.000
'0:19.200',-0.040,-0.167,-0.111,-0.200,90.000
'0:19.210',-0.130,-0.164,-0.108,-0.213,90.000
'0:19.220',-0.145,-0.160,-0.106,-0.226,90.000
'0:19.230',-0.070,-0.157,-0.103,-0.238,90.000
'0:19.240',-0.100,-0.153,-0.100,-0.251,90.000
'0:19.250',-0.110,-0.150,-0.097,-0.264,90.000
'0:19.260',-0.110,-0.145,-0.094,-0.275,90.000
'0:19.270',-0.085,-0.141,-0.091,-0.285,90.000
'0:19.280',-0.150,-0.137,-0.088,-0.296,90.000
'0:19.290',-0.120,-0.133,-0.085,-0.307,90.000
'0:19.300',-0.080,-0.129,-0.082,-0.318,90.000
'0:19.310',-0.090,-0.124,-0.078,-0.327,90.000
'0:19.320',-0.160,-0.118,-0.074,-0.337,90.000
'0:19.330',-0.070,-0.113,-0.070,-0.346,90.000
'0:19.340',-0.100,-0.108,-0.066,-0.355,90.000
'0:19.350',-0.035,-0.103,-0.062,-0.365,90.000
'0:19.360',-0.055,-0.098,-0.059,-0.373,90.000
'0:19.370',-0.115,-0.094,-0.056,-0.381,90.000
'0:19.380',-0.085,-0.089,-0.052,-0.389,90.000
'0:19.390',-0.050,-0.085,-0.049,-0.397,90.000
'0:19.400',-0.095,-0.081,-0.046,-0.405,90.000
'0:19.410',-0.080,-0.077,-0.043,-0.412,90.000
'0:19.420',-0.130,-0.073,-0.040,-0.418,90.000
'0:19.430',-0.080,-0.069,-0.038,-0.425,90.000
'0:19.440',-0.040,-0.065,-0.035,-0.432,90.000
'0:19.450',-0.010,-0.061,-0.032,-0.439,90.000
'0:19.460',-0.125,-0.057,-0.028,-0.445,90.000
'0:19.470',-0.095,-0.052,-0.025,-0.451,90.000
'0:19.480',0.055,-0.047,-0.021,-0.457,90.000
'0:19.490',0.100,-0.042,-0.018,-0.463,90.000
'0:19.500',0.075,-0.037,-0.014,-0.469,90.000
'0:19.510',0.240,-0.033,-0.011,-0.473,90.000
'0:19.520',0.225,-0.028,-0.007,-0.478,90.000
'0:19.530',0.135,-0.024,-0.004,-0.483,90.000
'0:19.540',0.105,-0.020,-0.001,-0.488,90.000
'0:19.550',0.000,-0.015,0.002,-0.493,90.000
'0:19.560',-0.090,-0.011,0.005,-0.497,90.000
'0:19.570',-0.130,-0.007,0.008,-0.502,90.000
'0:19.580',-0.070,-0.003,0.011,-0.506,90.000
'0:19.590',-0.080,0.002,0.014,-0.510,90.000
'0:19.600',-0.150,0.006,0.018,-0.514,90.000
'0:19.610',-0.160,0.010,0.021,-0.518,90.000
'0:19.620',-0.525,0.014,0.025,-0.522,90.000
'0:19.630',-0.810,0.019,0.028,-0.526,90.000
'0:19.640',-0.635,0.023,0.032,-0.529,90.000
'0:19.650',0.190,0.027,0.035,-0.533,90.000
'0:19.660',2.630,0.032,0.039,-0.536,90.000
'0:19.670',2.300,0.037,0.042,-0.539,90.000
'0:19.680',1.455,0.042,0.046,-0.543,90.000
'0:19.690',0.770,0.047,0.049,-0.546,90.000
'0:19.700',-0.095,0.052,0.053,-0.549,90.000
'0:19.710',-0.100,0.056,0.056,-0.552,90.000
'0:19.720',-0.130,0.061,0.060,-0.554,90.000
'0:19.730',-0.135,0.066,0.063,-0.557,90.000
'0:19.740',-0.280,0.070,0.066,-0.560,90.000
'0:19.750',-0.395,0.075,0.069,-0.563,90.000
'0:19.760',-0.215,0.079,0.073,-0.565,90.000
'0:19.770',-0.190,0.082,0.076,-0.567,90.000
'0:19.780',-0.250,0.086,0.079,-0.569,90.000
'0:19.790',-0.235,0.090,0.082,-0.572,90.000
'0:19.800',-0.210,0.093,0.085,-0.574,90.000
'0:19.810',-0.145,0.097,0.089,-0.576,90.000
'0:19.820',-0.155,0.101,0.092,-0.578,90.000
'0:19.830',-0.150,0.104,0.095,-0.580,90.000
'0:19.840',-0.160,0.108,0.099,-0.582,90.000
'0:19.850',-0.170,0.112,0.102,-0.584,90.000
'0:19.860',-0.245,0.114,0.104,-0.586,90.000
'0:19.870',-0.160,0.116,0.107,-0.587,90.000
'0:19.880',-0.220,0.119,0.109,-0.589,90.000
'0:19.890',-0.215,0.121,0.111,-0.591,90.000
'0:19.900',-0.220,0.123,0.113,-0.592,90.000
'0:19.910',-0.205,0.128,0.117,-0.594,90.000
'0:19.920',-0.235,0.132,0.120,-0.595,90.000
'0:19.930',-0.090,0.137,0.123,-0.597,90.000
'0:19.940',-0.095,0.141,0.126,-0.598,90.000
'0:19.950',0.000,0.145,0.130,-0.600,90.000
'0:19.960',0.080,0.151,0.134,-0.601,90.000
'0:19.970',0.055,0.157,0.138,-0.602,90.000
'0:19.980',0.035,0.163,0.143,-0.603,90.000
'0:19.990',0.075,0.169,0.147,-0.604,90.000
'0:20.000',0.095,0.175,0.152,-0.605,90.000
'0:20.010',0.055,0.178,0.154,-0.606,90.000
'0:20.020',0.045,0.181,0.156,-0.607,90.000
'0:20.030',0.045,0.184,0.158,-0.608,90.000
'0:20.040',0.035,0.187,0.160,-0.609,90.000
'0:20.050',-0.040,0.190,0.162,-0.610,90.000
'0:20.060',-0.035,0.194,0.164,-0.611,90.000
'0:20.070',0.035,0.198,0.167,-0.612,90.000
'0:20.080',-0.100,0.202,0.170,-0.612,90.000
'0:20.090',-0.030,0.206,0.172,-0.613,90.000
'0:20.100',-0.050,0.210,0.175,-0.614,90.000
'0:20.110',-0.050,0.214,0.176,-0.614,90.000
'0:20.120',-0.050,0.219,0.176,-0.615,90.000
'0:20.130',-0.065,0.223,0.177,-0.616,90.000
'0:20.140',-0.055,0.228,0.178,-0.616,90.000
'0:20.150',0.030,0.233,0.179,-0.617,90.000
'0:20.160',-0.095,0.235,0.179,-0.617,90.000
'0:20.170',-0.070,0.238,0.178,-0.618,90.000
'0:20.180',-0.095,0.240,0.178,-0.618,90.000
'0:20.190',-0.105,0.243,0.178,-0.619,90.000
'0:20.200',-0.105,0.246,0.178,-0.619,90.000
'0:20.210',-0.080,0.249,0.177,-0.620,90.000
'0:20.220',-0.065,0.252,0.177,-0.620,90.000
'0:20.230',-0.080,0.255,0.177,-0.620,90.000
'0:20.240',-0.040,0.258,0.176,-0.621,90.000
'0:20.250',-0.115,0.261,0.176,-0.621,90.000
'0:20.260',-0.115,0.264,0.174,-0.621,90.000
'0:20.270',-0.080,0.266,0.173,-0.621,90.000
'0:20.280',-0.060,0.269,0.171,-0.621,90.000
'0:20.290',-0.135,0.271,0.170,-0.621,90.000
'0:20.300',-0.030,0.274,0.168,-0.621,90.000
'0:20.310',-0.135,0.275,0.167,-0.621,90.000
'0:20.320',-0.035,0.276,0.166,-0.620,90.000
'0:20.330',-0.030,0.277,0.165,-0.620,90.000
'0:20.340',-0.050,0.278,0.163,-0.620,90.000
'0:20.350',-0.040,0.280,0.162,-0.619,90.000
'0:20.360',0.130,0.280,0.158,-0.619,90.000
'0:20.370',0.170,0.280,0.155,-0.619,90.000
'0:20.380',0.195,0.281,0.151,-0.618,90.000
'0:20.390',0.180,0.281,0.148,-0.618,90.000
'0:20.400',0.195,0.281,0.144,-0.618,90.000
'0:20.410',0.170,0.279,0.147,-0.616,90.000
'0:20.420',-0.065,0.276,0.150,-0.614,90.000
'0:20.430',-0.135,0.273,0.153,-0.612,90.000
'0:20.440',-0.010,0.270,0.156,-0.610,90.000
'0:20.450',-0.060,0.267,0.159,-0.608,90.000
'0:20.460',-0.120,0.264,0.162,-0.602,90.000
'0:20.470',-0.190,0.262,0.165,-0.597,90.000
'0:20.480',-0.135,0.259,0.168,-0.591,90.000
'0:20.490',-0.505,0.257,0.171,-0.585,90.000
'0:20.500',-0.750,0.254,0.174,-0.579,90.000
'0:20.510',-0.645,0.253,0.172,-0.569,90.000
'0:20.520',0.175,0.252,0.169,-0.559,90.000
'0:20.530',2.655,0.251,0.166,-0.548,90.000
'0:20.540',2.255,0.250,0.164,-0.538,90.000
'0:20.550',1.310,0.249,0.161,-0.528,90.000
'0:20.560',0.905,0.247,0.161,-0.515,90.000
'0:20.570',-0.025,0.245,0.160,-0.503,90.000
'0:20.580',-0.115,0.242,0.160,-0.490,90.000
'0:20.590',-0.125,0.240,0.159,-0.477,90.000
'0:20.600',-0.120,0.238,0.159,-0.464,90.000
'0:20.610',-0.095,0.235,0.159,-0.450,90.000
'0:20.620',-0.235,0.231,0.160,-0.436,90.000
'0:20.630',-0.240,0.228,0.160,-0.422,90.000
'0:20.640',-0.085,0.225,0.161,-0.408,90.000
'0:20.650',-0.240,0.222,0.161,-0.394,90.000
'0:20.660',-0.220,0.219,0.162,-0.380,90.000
'0:20.670',-0.195,0.215,0.162,-0.366,90.000
'0:20.680',-0.190,0.212,0.163,-0.352,90.000
'0:20.690',-0.280,0.209,0.164,-0.338,90.000
'0:20.700',-0.205,0.205,0.164,-0.324,90.000
'0:20.710',-0.190,0.202,0.162,-0.310,90.000
'0:20.720',-0.160,0.199,0.161,-0.296,90.000
'0:20.730',-0.310,0.196,0.159,-0.282,90.000
'0:20.740',-0.270,0.193,0.157,-0.268,90.000
'0:20.750',-0.200,0.190,0.155,-0.255,90.000
'0:20.760',-0.250,0.187,0.152,-0.242,90.000
'0:20.770',-0.260,0.185,0.149,-0.229,90.000
'0:20.780',-0.175,0.182,0.146,-0.216,90.000
'0:20.790',-0.185,0.179,0.143,-0.203,90.000
'0:20.800',-0.110,0.176,0.140,-0.191,90.000
'0:20.810',-0.145,0.173,0.138,-0.178,90.000
'0:20.820',-0.065,0.169,0.137,-0.166,90.000
'0:20.830',0.000,0.166,0.135,-0.154,90.000
'0:20.840',0.050,0.162,0.134,-0.142,90.000
'0:20.850',0.035,0.159,0.132,-0.129,90.000
'0:20.860',0.045,0.156,0.131,-0.117,90.000
'0:20.870',0.000,0.153,0.129,-0.105,90.000
'0:20.880',-0.020,0.150,0.128,-0.093,90.000
'0:20.890',-0.030,0.147,0.126,-0.081,90.000
'0:20.900',0.015,0.145,0.125,-0.069,90.000
'0:20.910',-0.070,0.142,0.123,-0.058,90.000
'0:20.920',0.030,0.140,0.120,-0.047,90.000
'0:20.930',-0.020,0.137,0.118,-0.036,90.000
'0:20.940',-0.035,0.135,0.116,-0.025,90.000
'0:20.950',-0.020,0.132,0.113,-0.014,90.000
'0:20.960',-0.020,0.129,0.111,-0.003,90.000
'0:20.970',-0.060,0.125,0.108,0.008,90.000
'0:20.980',-0.140,0.122,0.105,0.019,90.000
'0:20.990',-0.125,0.119,0.103,0.029,90.000
'0:21.000',-0.090,0.115,0.100,0.040,90.000
'0:21.010',-0.165,0.112,0.097,0.050,90.000
'0:21.020',-0.075,0.108,0.094,0.060,90.000
'0:21.030',-0.120,0.105,0.092,0.070,90.000
'0:21.040',-0.035,0.101,0.089,0.081,90.000
'0:21.050',-0.080,0.098,0.086,0.091,90.000
'0:21.060',-0.230,0.093,0.083,0.100,90.000
'0:21.070',-0.120,0.089,0.080,0.109,90.000
'0:21.080',-0.170,0.085,0.076,0.118,90.000
'0:21.090',-0.125,0.081,0.073,0.127,90.000
'0:21.100',-0.075,0.076,0.070,0.136,90.000
'0:21.110',-0.035,0.074,0.068,0.145,90.000
'0:21.120',0.040,0.071,0.066,0.154,90.000
'0:21.130',0.060,0.068,0.063,0.163,90.000
'0:21.140',0.025,0.066,0.061,0.171,90.000
'0:21.150',0.055,0.063,0.059,0.180,90.000
'0:21.160',0.040,0.060,0.056,0.188,90.000
'0:21.170',0.065,0.056,0.053,0.196,90.000
'0:21.180',0.070,0.053,0.051,0.204,90.000
'0:21.190',0.075,0.049,0.048,0.213,90.000
'0:21.200',-0.005,0.046,0.045,0.221,90.000
'0:21.210',0.070,0.042,0.042,0.228,90.000
'0:21.220',0.130,0.038,0.039,0.236,90.000
'0:21.230',0.325,0.034,0.036,0.244,90.000
'0:21.240',0.320,0.029,0.033,0.251,90.000
'0:21.250',0.270,0.025,0.030,0.259,90.000
'0:21.260',0.175,0.023,0.028,0.266,90.000
'0:21.270',0.225,0.021,0.026,0.273,90.000
'0:21.280',0.010,0.019,0.024,0.280,90.000
'0:21.290',-0.140,0.017,0.023,0.287,90.000
'0:21.300',-0.185,0.015,0.021,0.294,90.000
'0:21.310',-0.060,0.012,0.018,0.300,90.000
'0:21.320',-0.140,0.008,0.016,0.306,90.000
'0:21.330',-0.095,0.005,0.013,0.312,90.000
'0:21.340',-0.160,0.002,0.010,0.318,90.000
'0:21.350',-0.360,-0.002,0.008,0.324,90.000
'0:21.360',-0.720,-0.004,0.006,0.330,90.000
'0:21.370',-0.820,-0.007,0.004,0.336,90.000
'0:21.380',-0.115,-0.009,0.001,0.341,90.000
'0:21.390',1.990,-0.012,-0.001,0.347,90.000
'0:21.400',2.620,-0.014,-0.003,0.352,90.000
'0:21.410',1.525,-0.015,-0.004,0.357,90.000
'0:21.420',1.090,-0.017,-0.005,0.362,90.000
'0:21.430',0.220,-0.018,-0.007,0.367,90.000
'0:21.440',-0.130,-0.020,-0.008,0.372,90.000
'0:21.450',-0.115,-0.021,-0.009,0.378,90.000
'0:21.460',-0.140,-0.024,-0.011,0.382,90.000
'0:21.470',-0.125,-0.027,-0.013,0.387,90.000
'0:21.480',-0.145,-0.030,-0.015,0.392,90.000
'0:21.490',-0.115,-0.033,-0.017,0.397,90.000
'0:21.500',-0.155,-0.035,-0.019,0.401,90.000
'0:21.510',-0.175,-0.039,-0.022,0.406,90.000
'0:21.520',-0.120,-0.043,-0.024,0.410,90.000
'0:21.530',-0.120,-0.046,-0.027,0.415,90.000
'0:21.540',-0.205,-0.050,-0.029,0.419,90.000
'0:21.550',-0.150,-0.053,-0.032,0.424,90.000
'0:21.560',-0.160,-0.056,-0.035,0.428,90.000
'0:21.570',-0.215,-0.060,-0.037,0.432,90.000
'0:21.580',-0.215,-0.063,-0.040,0.436,90.000
'0:21.590',-0.200,-0.067,-0.042,0.440,90.000
'0:21.600',-0.195,-0.070,-0.045,0.444,90.000
'0:21.610',-0.255,-0.072,-0.046,0.447,90.000
'0:21.620',-0.245,-0.074,-0.048,0.451,90.000
'0:21.630',-0.170,-0.077,-0.050,0.454,90.000
'0:21.640',-0.195,-0.079,-0.052,0.458,90.000
'0:21.650',-0.215,-0.082,-0.053,0.461,90.000
'0:21.660',-0.110,-0.084,-0.055,0.464,90.000
'0:21.670',-0.105,-0.086,-0.057,0.467,90.000
'0:21.680',-0.010,-0.088,-0.059,0.470,90.000
'0:21.690',0.015,-0.090,-0.060,0.473,90.000
'0:21.700',0.085,-0.092,-0.062,0.476,90.000
'0:21.710',0.075,-0.094,-0.064,0.479,90.000
'0:21.720',0.095,-0.096,-0.066,0.481,90.000
'0:21.730',0.085,-0.098,-0.068,0.484,90.000
'0:21.740',0.040,-0.099,-0.069,0.486,90.000
'0:21.750',-0.010,-0.101,-0.071,0.489,90.000
'0:21.760',0.040,-0.102,-0.072,0.492,90.000
'0:21.770',0.010,-0.104,-0.074,0.494,90.000
'0:21.780',-0.015,-0.105,-0.075,0.497,90.000
'0:21.790',-0.035,-0.106,-0.077,0.499,90.000
'0:21.800',-0.025,-0.108,-0.078,0.502,90.000
'0:21.810',-0.070,-0.110,-0.079,0.504,90.000
'0:21.820',-0.020,-0.112,-0.081,0.506,90.000
'0:21.830',-0.065,-0.114,-0.082,0.508,90.000
'0:21.840',-0.080,-0.116,-0.084,0.510,90.000
'0:21.850',-0.090,-0.119,-0.085,0.513,90.000
'0:21.860',-0.140,-0.122,-0.087,0.515,90.000
'0:21.870',-0.145,-0.125,-0.089,0.517,90.000
'0:21.880',-0.160,-0.128,-0.091,0.519,90.000
'0:21.890',-0.090,-0.131,-0.094,0.522,90.000
'0:21.900',-0.130,-0.135,-0.096,0.524,90.000
'0:21.910',-0.090,-0.136,-0.098,0.526,90.000
'0:21.920',-0.105,-0.138,-0.100,0.528,90.000
'0:21.930',-0.090,-0.140,-0.102,0.530,90.000
'0:21.940',-0.170,-0.142,-0.104,0.532,90.000
'0:21.950',-0.145,-0.144,-0.107,0.534,90.000
'0:21.960',-0.135,-0.146,-0.109,0.536,90.000
'0:21.970',-0.090,-0.149,-0.111,0.538,90.000
'0:21.980',-0.095,-0.151,-0.113,0.539,90.000
'0:21.990',-0.050,-0.154,-0.115,0.541,90.000
'0:22.000',-0.070,-0.156,-0.117,0.543,90.000
'0:22.010',-0.055,-0.159,-0.119,0.544,90.000
'0:22.020',-0.065,-0.162,-0.121,0.546,90.000
'0:22.030',-0.095,-0.165,-0.123,0.547,90.000
'0:22.040',-0.060,-0.168,-0.125,0.549,90.000
'0:22.050',-0.120,-0.171,-0.127,0.550,90.000
'0:22.060',-0.120,-0.172,-0.127,0.552,90.000
'0:22.070',-0.030,-0.173,-0.128,0.553,90.000
'0:22.080',0.040,-0.174,-0.129,0.554,90.000
'0:22.090',0.110,-0.175,-0.130,0.556,90.000
'0:22.100',0.125,-0.176,-0.131,0.557,90.000
'0:22.110',0.220,-0.177,-0.132,0.558,90.000
'0:22.120',0.200,-0.179,-0.133,0.559,90.000
'0:22.130',0.085,-0.180,-0.135,0.560,90.000
'0:22.140',0.020,-0.182,-0.136,0.562,90.000
'0:22.150',0.000,-0.183,-0.137,0.563,90.000
'0:22.160',-0.125,-0.185,-0.139,0.564,90.000
'0:22.170',-0.115,-0.188,-0.141,0.565,90.000
'0:22.180',-0.110,-0.191,-0.143,0.566,90.000
'0:22.190',-0.125,-0.193,-0.145,0.567,90.000
'0:22.200',-0.125,-0.196,-0.147,0.568,90.000
'0:22.210',-0.130,-0.198,-0.148,0.569,90.000
'0:22.220',-0.605,-0.200,-0.149,0.569,90.000
'0:22.230',-0.850,-0.202,-0.151,0.570,90.000
'0:22.240',-0.460,-0.204,-0.152,0.570,90.000
'0:22.250',0.510,-0.206,-0.153,0.571,90.000
'0:22.260',2.595,-0.206,-0.154,0.572,90.000
'0:22.270',2.010,-0.207,-0.154,0.572,90.000
'0:22.280',1.265,-0.207,-0.155,0.573,90.000
'0:22.290',0.660,-0.207,-0.155,0.573,90.000
'0:22.300',-0.090,-0.207,-0.156,0.574,90.000
'0:22.310',-0.155,-0.209,-0.157,0.574,90.000
'0:22.320',-0.205,-0.211,-0.159,0.575,90.000
'0:22.330',-0.165,-0.212,-0.161,0.576,90.000
'0:22.340',-0.205,-0.214,-0.163,0.576,90.000
'0:22.350',-0.170,-0.216,-0.164,0.577,90.000
'0:22.360',-0.205,-0.218,-0.166,0.577,90.000
'0:22.370',-0.195,-0.221,-0.168,0.577,90.000
'0:22.380',-0.220,-0.224,-0.169,0.577,90.000
'0:22.390',-0.185,-0.226,-0.171,0.578,90.000
'0:22.400',-0.180,-0.229,-0.173,0.578,90.000
'0:22.410',-0.180,-0.230,-0.174,0.578,90.000
'0:22.420',-0.180,-0.232,-0.174,0.578,90.000
'0:22.430',-0.155,-0.234,-0.175,0.578,90.000
'0:22.440',-0.215,-0.235,-0.176,0.578,90.000
'0:22.450',-0.115,-0.237,-0.177,0.578,90.000
'0:22.460',-0.225,-0.239,-0.178,0.578,90.000
'0:22.470',-0.145,-0.241,-0.180,0.578,90.000
'0:22.480',-0.255,-0.243,-0.181,0.578,90.000
'0:22.490',-0.160,-0.246,-0.183,0.578,90.000
'0:22.500',-0.235,-0.248,-0.184,0.578,90.000
'0:22.510',-0.155,-0.249,-0.185,0.578,90.000
'0:22.520',-0.180,-0.251,-0.187,0.578,90.000
'0:22.530',-0.040,-0.253,-0.188,0.578,90.000
'0:22.540',-0.105,-0.255,-0.189,0.578,90.000
'0:22.550',0.025,-0.256,-0.190,0.578,90.000
'0:22.560',0.065,-0.258,-0.191,0.578,90.000
'0:22.570',0.150,-0.259,-0.193,0.577,90.000
'0:22.580',0.130,-0.261,-0.194,0.577,90.000
'0:22.590',0.155,-0.262,-0.195,0.577,90.000
'0:22.600',0.135,-0.263,-0.196,0.577,90.000
'0:22.610',0.240,-0.264,-0.196,0.576,90.000
'0:22.620',0.135,-0.265,-0.197,0.576,90.000
'0:22.630',0.060,-0.266,-0.198,0.576,90.000
'0:22.640',0.100,-0.268,-0.198,0.575,90.000
'0:22.650',-0.050,-0.269,-0.199,0.575,90.000
'0:22.660',-0.025,-0.270,-0.199,0.575,90.000
'0:22.670',-0.075,-0.271,-0.200,0.575,90.000
'0:22.680',-0.035,-0.273,-0.201,0.574,90.000
'0:22.690',-0.080,-0.274,-0.201,0.574,90.000
'0:22.700',-0.010,-0.276,-0.202,0.574,90.000
'0:22.710',-0.155,-0.278,-0.203,0.574,90.000
'0:22.720',-0.085,-0.280,-0.204,0.573,90.000
'0:22.730',-0.110,-0.283,-0.205,0.573,90.000
'0:22.740',-0.070,-0.285,-0.206,0.573,90.000
'0:22.750',-0.110,-0.287,-0.208,0.573,90.000
'0:22.760',-0.095,-0.290,-0.209,0.572,90.000
'0:22.770',-0.165,-0.292,-0.210,0.572,90.000
'0:22.780',-0.145,-0.295,-0.210,0.571,90.000
'0:22.790',-0.100,-0.297,-0.211,0.571,90.000
'0:22.800',-0.075,-0.299,-0.212,0.571,90.000
'0:22.810',-0.195,-0.301,-0.213,0.570,90.000
'0:22.820',-0.115,-0.302,-0.213,0.569,90.000
'0:22.830',-0.100,-0.303,-0.213,0.569,90.000
'0:22.840',-0.035,-0.304,-0.213,0.568,90.000
'0:22.850',-0.140,-0.305,-0.214,0.567,90.000
'0:22.860',-0.100,-0.306,-0.214,0.566,90.000
'0:22.870',-0.130,-0.307,-0.214,0.566,90.000
'0:22.880',-0.005,-0.307,-0.215,0.565,90.000
'0:22.890',-0.130,-0.308,-0.215,0.564,90.000
'0:22.900',-0.110,-0.309,-0.215,0.564,90.000
'0:22.910',-0.105,-0.310,-0.216,0.563,90.000
'0:22.920',0.025,-0.311,-0.217,0.562,90.000
'0:22.930',-0.045,-0.312,-0.218,0.561,90.000
'0:22.940',-0.045,-0.313,-0.219,0.559,90.000
'0:22.950',0.020,-0.314,-0.219,0.558,90.000
'0:22.960',0.125,-0.313,-0.219,0.557,90.000
'0:22.970',0.340,-0.312,-0.218,0.555,90.000
'0:22.980',0.195,-0.311,-0.218,0.553,90.000
'0:22.990',0.105,-0.310,-0.218,0.552,90.000
'0:23.000',0.115,-0.309,-0.217,0.550,90.000
'0:23.010',0.050,-0.308,-0.217,0.547,90.000
'0:23.020',-0.015,-0.306,-0.216,0.543,90.000
'0:23.030',-0.080,-0.305,-0.216,0.540,90.000
'0:23.040',-0.085,-0.304,-0.215,0.537,90.000
'0:23.050',-0.070,-0.302,-0.214,0.533,90.000
'0:23.060',-0.070,-0.301,-0.213,0.526,90.000
'0:23.070',-0.085,-0.299,-0.212,0.518,90.000
'0:23.080',-0.410,-0.298,-0.211,0.511,90.000
'0:23.090',-0.705,-0.297,-0.210,0.503,90.000
'0:23.100',-0.855,-0.295,-0.209,0.496,90.000
'0:23.110',-0.115,-0.293,-0.207,0.484,90.000
'0:23.120',1.805,-0.290,-0.206,0.472,90.000
'0:23.130',2.630,-0.288,-0.204,0.460,90.000
'0:23.140',1.445,-0.286,-0.202,0.449,90.000
'0:23.150',1.075,-0.283,-0.200,0.437,90.000
'0:23.160',0.175,-0.281,-0.199,0.422,90.000
'0:23.170',-0.100,-0.278,-0.198,0.406,90.000
'0:23.180',-0.075,-0.276,-0.196,0.392,90.000
'0:23.190',-0.165,-0.273,-0.195,0.376,90.000
'0:23.200',-0.175,-0.270,-0.194,0.361,90.000
'0:23.210',-0.200,-0.268,-0.192,0.344,90.000
'0:23.220',-0.185,-0.266,-0.191,0.327,90.000
'0:23.230',-0.180,-0.264,-0.189,0.310,90.000
'0:23.240',-0.135,-0.262,-0.187,0.293,90.000
'0:23.250',-0.190,-0.260,-0.185,0.276,90.000
'0:23.260',-0.105,-0.259,-0.183,0.258,90.000
'0:23.270',-0.160,-0.259,-0.180,0.240,90.000
'0:23.280',-0.105,-0.258,-0.178,0.222,90.000
'0:23.290',-0.145,-0.258,-0.176,0.204,90.000
'0:23.300',-0.140,-0.258,-0.173,0.186,90.000
'0:23.310',-0.200,-0.255,-0.172,0.168,90.000
'0:23.320',-0.185,-0.252,-0.171,0.150,90.000
'0:23.330',-0.165,-0.250,-0.169,0.132,90.000
'0:23.340',-0.130,-0.247,-0.168,0.114,90.000
'0:23.350',-0.195,-0.244,-0.167,0.096,90.000
'0:23.360',-0.150,-0.240,-0.165,0.078,90.000
'0:23.370',-0.145,-0.236,-0.163,0.060,90.000
'0:23.380',-0.090,-0.232,-0.161,0.043,90.000
'0:23.390',-0.040,-0.228,-0.159,0.025,90.000
'0:23.400',0.130,-0.224,-0.158,0.008,90.000
'0:23.410',0.190,-0.220,-0.155,-0.008,90.000
'0:23.420',0.210,-0.217,-0.152,-0.025,90.000
'0:23.430',0.175,-0.214,-0.149,-0.041,90.000
'0:23.440',0.195,-0.210,-0.146,-0.057,90.000
'0:23.450',0.180,-0.207,-0.143,-0.073,90.000
'0:23.460',0.125,-0.204,-0.141,-0.088,90.000
'0:23.470',0.085,-0.201,-0.139,-0.103,90.000
'0:23.480',0.045,-0.197,-0.136,-0.117,90.000
'0:23.490',0.035,-0.194,-0.134,-0.132,90.000
'0:23.500',-0.020,-0.191,-0.132,-0.147,90.000
'0:23.510',0.080,-0.188,-0.130,-0.160,90.000
'0:23.520',0.005,-0.185,-0.128,-0.173,90.000
'0:23.530',-0.030,-0.182,-0.126,-0.186,90.000
'0:23.540',-0.010,-0.179,-0.124,-0.199,90.000
'0:23.550',0.050,-0.176,-0.122,-0.212,90.000
'0:23.560',-0.025,-0.172,-0.119,-0.224,90.000
'0:23.570',-0.015,-0.168,-0.116,-0.235,90.000
'0:23.580',-0.030,-0.164,-0.114,-0.247,90.000
'0:23.590',0.025,-0.161,-0.111,-0.258,90.000
'0:23.600',-0.085,-0.157,-0.108,-0.270,90.000
'0:23.610',-0.055,-0.153,-0.105,-0.280,90.000
'0:23.620',-0.065,-0.149,-0.103,-0.289,90.000
'0:23.630',-0.040,-0.145,-0.100,-0.299,90.000
'0:23.640',-0.070,-0.141,-0.098,-0.309,90.000
'0:23.650',-0.070,-0.137,-0.095,-0.319,90.000
'0:23.660',-0.025,-0.134,-0.092,-0.328,90.000
'0:23.670',-0.080,-0.130,-0.089,-0.336,90.000
'0:23.680',-0.060,-0.126,-0.086,-0.344,90.000
'0:23.690',-0.285,-0.123,-0.083,-0.353,90.000
'0:23.700',-0.380,-0.119,-0.080,-0.361,90.000
'0:23.710',-0.370,-0.116,-0.077,-0.368,90.000
'0:23.720',0.115,-0.113,-0.075,-0.376,90.000
'0:23.730',0.195,-0.110,-0.073,-0.383,90.000
'0:23.740',0.270,-0.107,-0.070,-0.390,90.000
'0:23.750',-0.020,-0.104,-0.068,-0.397,90.000
'0:23.760',-0.640,-0.100,-0.065,-0.404,90.000
'0:23.770',-0.855,-0.097,-0.063,-0.410,90.000
'0:23.780',-1.160,-0.093,-0.060,-0.417,90.000
'0:23.790',-1.265,-0.089,-0.057,-0.423,90.000
'0:23.800',-0.720,-0.086,-0.054,-0.430,90.000
'0:23.810',-0.310,-0.082,-0.051,-0.435,90.000
'0:23.820',-0.050,-0.078,-0.048,-0.440,90.000
'0:23.830',0.010,-0.074,-0.045,-0.446,90.000
'0:23.840',0.040,-0.071,-0.042,-0.451,90.000
'0:23.850',0.110,-0.067,-0.040,-0.456,90.000
'0:23.860',-0.025,-0.064,-0.038,-0.461,90.000
'0:23.870',0.050,-0.062,-0.036,-0.465,90.000
'0:23.880',-0.055,-0.059,-0.034,-0.470,90.000
'0:23.890',0.010,-0.057,-0.032,-0.474,90.000
'0:23.900',-0.010,-0.054,-0.030,-0.479,90.000
'0:23.910',0.100,-0.052,-0.028,-0.483,90.000
'0:23.920',0.095,-0.049,-0.026,-0.487,90.000
'0:23.930',0.155,-0.046,-0.024,-0.491,90.000
'0:23.940',0.140,-0.044,-0.021,-0.495,90.000
'0:23.950',0.250,-0.041,-0.019,-0.499,90.000
'0:23.960',0.200,-0.039,-0.017,-0.502,90.000
'0:23.970',0.315,-0.036,-0.015,-0.506,90.000
'0:23.980',0.320,-0.034,-0.013,-0.509,90.000
'0:23.990',0.370,-0.031,-0.011,-0.512,90.000
'0:24.000',0.340,-0.029,-0.009,-0.515,90.000
'0:24.010',0.415,-0.026,-0.007,-0.518,90.000
'0:24.020',0.270,-0.023,-0.004,-0.521,90.000
'0:24.030',0.385,-0.021,-0.002,-0.524,90.000
'0:24.040',0.240,-0.018,0.000,-0.526,90.000
'0:24.050',0.370,-0.015,0.002,-0.529,90.000
'0:24.060',0.195,-0.011,0.006,-0.531,90.000
'0:24.070',0.330,-0.007,0.009,-0.533,90.000
'0:24.080',0.095,-0.002,0.012,-0.536,90.000
'0:24.090',0.160,0.002,0.015,-0.538,90.000
'0:24.100',0.130,0.006,0.019,-0.540,90.000
'0:24.110',0.095,0.010,0.021,-0.542,90.000
'0:24.120',-0.080,0.013,0.023,-0.544,90.000
'0:24.130',0.100,0.017,0.026,-0.546,90.000
'0:24.140',-0.085,0.020,0.028,-0.548,90.000
'0:24.150',0.045,0.024,0.030,-0.550,90.000
'0:24.160',0.000,0.027,0.032,-0.551,90.000
'0:24.170',-0.015,0.029,0.034,-0.553,90.000
'0:24.180',-0.125,0.032,0.036,-0.555,90.000
'0:24.190',-0.090,0.035,0.038,-0.556,90.000
'0:24.200',-0.200,0.038,0.040,-0.558,90.000
'0:24.210',0.000,0.041,0.043,-0.560,90.000
'0:24.220',-0.185,0.043,0.045,-0.561,90.000
'0:24.230',-0.020,0.046,0.047,-0.562,90.000
'0:24.240',-0.185,0.049,0.050,-0.564,90.000
'0:24.250',0.035,0.052,0.052,-0.565,90.000
'0:24.260',-0.175,0.053,0.054,-0.567,90.000
'0:24.270',-0.005,0.055,0.055,-0.568,90.000
'0:24.280',-0.170,0.056,0.057,-0.569,90.000
'0:24.290',-0.095,0.058,0.058,-0.571,90.000
'0:24.300',-0.200,0.059,0.060,-0.572,90.000
'0:24.310',-0.135,0.062,0.062,-0.573,90.000
'0:24.320',0.215,0.064,0.064,-0.574,90.000
'0:24.330',-0.105,0.067,0.066,-0.575,90.000
'0:24.340',-0.005,0.069,0.068,-0.576,90.000
'0:24.350',-0.170,0.072,0.070,-0.577,90.000
'0:24.360',0.260,0.074,0.072,-0.578,90.000
'0:24.370',0.160,0.077,0.074,-0.579,90.000
'0:24.380',-0.060,0.079,0.076,-0.580,90.000
'0:24.390',-0.060,0.082,0.078,-0.581,90.000
'0:24.400',0.055,0.085,0.080,-0.581,90.000
'0:24.410',-0.075,0.086,0.082,-0.582,90.000
'0:24.420',-0.025,0.088,0.084,-0.583,90.000
'0:24.430',-0.105,0.090,0.085,-0.583,90.000
'0:24.440',-0.040,0.092,0.087,-0.584,90.000
'0:24.450',-0.110,0.094,0.088,-0.584,90.000
'0:24.460',0.000,0.096,0.090,-0.585,90.000
'0:24.470',-0.095,0.098,0.092,-0.585,90.000
'0:24.480',-0.085,0.101,0.094,-0.585,90.000
'0:24.490',-0.105,0.103,0.096,-0.586,90.000
'0:24.500',-0.035,0.105,0.097,-0.586,90.000
'0:24.510',-0.130,0.107,0.099,-0.586,90.000
'0:24.520',-0.065,0.109,0.100,-0.586,90.000
'0:24.530',-0.090,0.112,0.102,-0.586,90.000
'0:24.540',-0.110,0.114,0.103,-0.586,90.000
'0:24.550',-0.110,0.116,0.104,-0.586,90.000
'0:24.560',0.005,0.117,0.105,-0.586,90.000
'0:24.570',-0.080,0.118,0.105,-0.586,90.000
'0:24.580',-0.090,0.119,0.106,-0.585,90.000
'0:24.590',-0.095,0.119,0.107,-0.585,90.000
'0:24.600',0.005,0.120,0.107,-0.585,90.000
'0:24.610',-0.135,0.120,0.107,-0.584,90.000
'0:24.620',-0.110,0.121,0.107,-0.584,90.000
'0:24.630',-0.100,0.121,0.107,-0.583,90.000
'0:24.640',-0.060,0.121,0.108,-0.582,90.000
'0:24.650',-0.010,0.121,0.108,-0.582,90.000
'0:24.660',-0.125,0.121,0.107,-0.580,90.000
'0:24.670',-0.060,0.120,0.107,-0.578,90.000
'0:24.680',0.095,0.120,0.107,-0.577,90.000
'0:24.690',0.115,0.120,0.106,-0.575,90.000
'0:24.700',0.105,0.120,0.106,-0.573,90.000
'0:24.710',0.215,0.118,0.104,-0.568,90.000
'0:24.720',0.205,0.116,0.103,-0.564,90.000
'0:24.730',0.185,0.114,0.101,-0.559,90.000
'0:24.740',0.025,0.112,0.099,-0.554,90.000
'0:24.750',-0.065,0.110,0.098,-0.549,90.000
'0:24.760',-0.070,0.107,0.096,-0.541,90.000
'0:24.770',-0.085,0.105,0.094,-0.532,90.000
'0:24.780',-0.160,0.102,0.092,-0.524,90.000
'0:24.790',-0.130,0.100,0.090,-0.515,90.000
'0:24.800',-0.125,0.097,0.088,-0.507,90.000
'0:24.810',-0.330,0.096,0.088,-0.496,90.000
'0:24.820',-0.715,0.095,0.087,-0.485,90.000
'0:24.830',-0.805,0.094,0.086,-0.475,90.000
'0:24.840',-0.140,0.093,0.085,-0.464,90.000
'0:24.850',1.955,0.092,0.084,-0.453,90.000
'0:24.860',2.545,0.091,0.083,-0.440,90.000
'0:24.870',1.485,0.090,0.082,-0.428,90.000
'0:24.880',1.085,0.089,0.081,-0.415,90.000
'0:24.890',0.195,0.088,0.080,-0.403,90.000
'0:24.900',-0.085,0.087,0.079,-0.390,90.000
'0:24.910',-0.210,0.085,0.077,-0.377,90.000
'0:24.920',-0.200,0.082,0.075,-0.363,90.000
'0:24.930',-0.170,0.079,0.073,-0.350,90.000
'0:24.940',-0.210,0.077,0.071,-0.337,90.000
'0:24.950',-0.180,0.074,0.069,-0.324,90.000
'0:24.960',-0.190,0.071,0.066,-0.310,90.000
'0:24.970',-0.120,0.068,0.064,-0.297,90.000
'0:24.980',-0.185,0.065,0.062,-0.284,90.000
'0:24.990',-0.185,0.062,0.060,-0.271,90.000
'0:25.000',-0.115,0.059,0.058,-0.258,90.000
'0:25.010',-0.200,0.056,0.056,-0.245,90.000
'0:25.020',-0.235,0.054,0.054,-0.232,90.000
'0:25.030',-0.170,0.051,0.052,-0.219,90.000
'0:25.040',-0.215,0.048,0.050,-0.206,90.000
'0:25.050',-0.180,0.045,0.049,-0.194,90.000
'0:25.060',-0.195,0.044,0.047,-0.181,90.000
'0:25.070',-0.150,0.042,0.045,-0.169,90.000
'0:25.080',-0.200,0.040,0.044,-0.157,90.000
'0:25.090',-0.190,0.038,0.042,-0.145,90.000
'0:25.100',-0.135,0.036,0.040,-0.132,90.000
'0:25.110',-0.145,0.035,0.039,-0.121,90.000
'0:25.120',-0.085,0.033,0.037,-0.110,90.000
'0:25.130',-0.040,0.031,0.035,-0.098,90.000
'0:25.140',0.045,0.029,0.033,-0.087,90.000
'0:25.150',0.085,0.027,0.032,-0.075,90.000
'0:25.160',0.170,0.024,0.029,-0.064,90.000
'0:25.170',0.205,0.021,0.027,-0.053,90.000
'0:25.180',0.170,0.018,0.024,-0.042,90.000
'0:25.190',0.225,0.015,0.022,-0.031,90.000
'0:25.200',0.135,0.012,0.019,-0.020,90.000
'0:25.210',0.085,0.010,0.018,-0.009,90.000
'0:25.220',0.080,0.008,0.016,0.001,90.000
'0:25.230',0.050,0.006,0.015,0.012,90.000
'0:25.240',0.030,0.004,0.013,0.023,90.000
'0:25.250',0.000,0.003,0.012,0.033,90.000
'0:25.260',0.015,0.001,0.010,0.043,90.000
'0:25.270',-0.040,-0.001,0.008,0.054,90.000
'0:25.280',0.015,-0.003,0.007,0.064,90.000
'0:25.290',-0.020,-0.005,0.005,0.074,90.000
'0:25.300',-0.075,-0.007,0.003,0.084,90.000
'0:25.310',-0.125,-0.010,0.001,0.094,90.000
'0:25.320',-0.115,-0.014,-0.002,0.103,90.000
'0:25.330',-0.070,-0.017,-0.004,0.112,90.000
'0:25.340',-0.165,-0.020,-0.006,0.122,90.000
'0:25.350',-0.165,-0.023,-0.009,0.131,90.000
'0:25.360',-0.145,-0.025,-0.011,0.140,90.000
'0:25.370',-0.095,-0.027,-0.012,0.149,90.000
'0:25.380',-0.225,-0.029,-0.014,0.158,90.000
'0:25.390',-0.180,-0.031,-0.015,0.167,90.000
'0:25.400',-0.125,-0.033,-0.017,0.175,90.000
'0:25.410',-0.085,-0.036,-0.019,0.184,90.000
'0:25.420',-0.150,-0.038,-0.021,0.192,90.000
'0:25.430',-0.030,-0.040,-0.023,0.200,90.000
'0:25.440',-0.105,-0.042,-0.025,0.209,90.000
'0:25.450',-0.110,-0.044,-0.027,0.217,90.000
'0:25.460',-0.095,-0.047,-0.029,0.224,90.000
'0:25.470',-0.085,-0.049,-0.031,0.232,90.000
'0:25.480',-0.130,-0.051,-0.033,0.239,90.000
'0:25.490',-0.080,-0.053,-0.035,0.247,90.000
'0:25.500',-0.065,-0.055,-0.036,0.254,90.000
'0:25.510',0.000,-0.057,-0.038,0.261,90.000
'0:25.520',0.105,-0.059,-0.040,0.268,90.000
'0:25.530',0.160,-0.061,-0.042,0.275,90.000
'0:25.540',0.230,-0.063,-0.044,0.282,90.000
'0:25.550',0.220,-0.065,-0.046,0.289,90.000
'0:25.560',0.135,-0.067,-0.048,0.295,90.000
'0:25.570',0.095,-0.070,-0.050,0.301,90.000
'0:25.580',0.005,-0.072,-0.052,0.308,90.000
'0:25.590',-0.040,-0.075,-0.054,0.314,90.000
'0:25.600',-0.090,-0.078,-0.055,0.320,90.000
'0:25.610',-0.070,-0.081,-0.058,0.326,90.000
'0:25.620',-0.110,-0.084,-0.060,0.332,90.000
'0:25.630',-0.065,-0.088,-0.062,0.337,90.000
'0:25.640',-0.125,-0.091,-0.065,0.343,90.000
'0:25.650',-0.320,-0.094,-0.067,0.349,90.000
'0:25.660',-0.700,-0.097,-0.069,0.354,90.000
'0:25.670',-0.870,-0.100,-0.072,0.359,90.000
'0:25.680',-0.230,-0.102,-0.074,0.364,90.000
'0:25.690',1.600,-0.105,-0.076,0.369,90.000
'0:25.700',2.690,-0.108,-0.078,0.374,90.000
'0:25.710',1.535,-0.110,-0.080,0.379,90.000
'0:25.720',1.145,-0.111,-0.081,0.384,90.000
'0:25.730',0.245,-0.113,-0.082,0.388,90.000
'0:25.740',-0.090,-0.114,-0.084,0.393,90.000
'0:25.750',-0.105,-0.116,-0.085,0.398,90.000
'0:25.760',-0.200,-0.118,-0.087,0.402,90.000
'0:25.770',-0.140,-0.121,-0.089,0.406,90.000
'0:25.780',-0.175,-0.123,-0.091,0.410,90.000
'0:25.790',-0.145,-0.126,-0.094,0.415,90.000
'0:25.800',-0.180,-0.129,-0.096,0.419,90.000
'0:25.810',-0.150,-0.131,-0.098,0.423,90.000
'0:25.820',-0.170,-0.134,-0.100,0.427,90.000
'0:25.830',-0.105,-0.137,-0.102,0.431,90.000
'0:25.840',-0.085,-0.140,-0.104,0.434,90.000
'0:25.850',-0.215,-0.142,-0.106,0.438,90.000
'0:25.860',-0.215,-0.144,-0.107,0.442,90.000
'0:25.870',-0.120,-0.146,-0.108,0.445,90.000
'0:25.880',-0.170,-0.147,-0.110,0.449,90.000
'0:25.890',-0.220,-0.149,-0.111,0.452,90.000
'0:25.900',-0.210,-0.151,-0.112,0.456,90.000
'0:25.910',-0.175,-0.153,-0.113,0.459,90.000
'0:25.920',-0.180,-0.154,-0.114,0.462,90.000
'0:25.930',-0.185,-0.156,-0.115,0.465,90.000
'0:25.940',-0.175,-0.158,-0.116,0.468,90.000
'0:25.950',-0.105,-0.159,-0.117,0.471,90.000
'0:25.960',-0.160,-0.161,-0.118,0.473,90.000
'0:25.970',-0.100,-0.163,-0.120,0.476,90.000
'0:25.980',-0.035,-0.165,-0.121,0.479,90.000
'0:25.990',0.070,-0.167,-0.123,0.482,90.000
'0:26.000',0.040,-0.169,-0.125,0.484,90.000
'0:26.010',0.075,-0.171,-0.126,0.487,90.000
'0:26.020',0.100,-0.172,-0.128,0.489,90.000
'0:26.030',0.060,-0.174,-0.130,0.491,90.000
'0:26.040',0.040,-0.176,-0.131,0.494,90.000
'0:26.050',0.065,-0.178,-0.133,0.496,90.000
'0:26.060',0.020,-0.179,-0.134,0.498,90.000
'0:26.070',0.030,-0.181,-0.136,0.500,90.000
'0:26.080',0.000,-0.182,-0.137,0.502,90.000
'0:26.090',-0.045,-0.183,-0.138,0.505,90.000
'0:26.100',0.000,-0.184,-0.139,0.507,90.000
'0:26.110',-0.050,-0.186,-0.140,0.509,90.000
'0:26.120',-0.085,-0.187,-0.141,0.511,90.000
'0:26.130',-0.015,-0.189,-0.142,0.512,90.000
'0:26.140',-0.060,-0.190,-0.143,0.514,90.000
'0:26.150',-0.105,-0.191,-0.144,0.516,90.000
'0:26.160',-0.090,-0.194,-0.145,0.518,90.000
'0:26.170',-0.080,-0.196,-0.146,0.520,90.000
'0:26.180',-0.070,-0.199,-0.147,0.522,90.000
'0:26.190',-0.075,-0.201,-0.148,0.523,90.000
'0:26.200',-0.035,-0.203,-0.150,0.525,90.000
'0:26.210',-0.080,-0.206,-0.152,0.527,90.000
'0:26.220',-0.115,-0.208,-0.154,0.529,90.000
'0:26.230',-0.085,-0.211,-0.156,0.531,90.000
'0:26.240',-0.105,-0.213,-0.158,0.532,90.000
'0:26.250',-0.085,-0.215,-0.160,0.534,90.000
'0:26.260',-0.055,-0.217,-0.161,0.536,90.000
'0:26.270',-0.070,-0.219,-0.163,0.538,90.000
'0:26.280',-0.025,-0.222,-0.165,0.539,90.000
'0:26.290',-0.085,-0.224,-0.167,0.541,90.000
'0:26.300',-0.090,-0.226,-0.168,0.543,90.000
'0:26.310',-0.055,-0.228,-0.170,0.544,90.000
'0:26.320',0.010,-0.229,-0.171,0.546,90.000
'0:26.330',-0.095,-0.231,-0.172,0.547,90.000
'0:26.340',-0.090,-0.233,-0.173,0.548,90.000
'0:26.350',-0.040,-0.235,-0.174,0.550,90.000
'0:26.360',0.070,-0.236,-0.175,0.551,90.000
'0:26.370',0.035,-0.237,-0.176,0.553,90.000
'0:26.380',0.055,-0.238,-0.177,0.554,90.000
'0:26.390',0.215,-0.238,-0.178,0.555,90.000
'0:26.400',0.320,-0.239,-0.179,0.557,90.000
'0:26.410',0.150,-0.241,-0.180,0.558,90.000
'0:26.420',0.090,-0.243,-0.182,0.559,90.000
'0:26.430',0.010,-0.245,-0.183,0.560,90.000
'0:26.440',-0.015,-0.246,-0.184,0.561,90.000
'0:26.450',-0.060,-0.248,-0.186,0.562,90.000
'0:26.460',-0.120,-0.251,-0.187,0.563,90.000
'0:26.470',-0.145,-0.253,-0.189,0.564,90.000
'0:26.480',-0.055,-0.256,-0.190,0.565,90.000
'0:26.490',-0.205,-0.259,-0.192,0.566,90.000
'0:26.500',-0.350,-0.261,-0.193,0.567,90.000
'0:26.510',-0.700,-0.264,-0.194,0.567,90.000
'0:26.520',-0.825,-0.266,-0.196,0.568,90.000
'0:26.530',-0.220,-0.268,-0.197,0.568,90.000
'0:26.540',1.450,-0.271,-0.198,0.569,90.000
'0:26.550',2.745,-0.273,-0.199,0.569,90.000
'0:26.560',1.560,-0.274,-0.200,0.570,90.000
'0:26.570',1.125,-0.276,-0.201,0.570,90.000
'0:26.580',0.340,-0.277,-0.202,0.571,90.000
'0:26.590',-0.105,-0.279,-0.203,0.571,90.000
'0:26.600',-0.115,-0.281,-0.204,0.571,90.000
'0:26.610',-0.205,-0.281,-0.205,0.572,90.000
'0:26.620',-0.115,-0.282,-0.206,0.572,90.000
'0:26.630',-0.210,-0.283,-0.207,0.572,90.000
'0:26.640',-0.195,-0.284,-0.208,0.572,90.000
'0:26.650',-0.185,-0.284,-0.209,0.573,90.000
'0:26.660',-0.140,-0.286,-0.209,0.573,90.000
'0:26.670',-0.130,-0.288,-0.210,0.572,90.000
'0:26.680',-0.170,-0.290,-0.210,0.572,90.000
'0:26.690',-0.140,-0.292,-0.210,0.572,90.000
'0:26.700',-0.115,-0.294,-0.211,0.572,90.000
'0:26.710',-0.245,-0.296,-0.210,0.572,90.000
'0:26.720',-0.175,-0.298,-0.210,0.571,90.000
'0:26.730',-0.125,-0.301,-0.210,0.571,90.000
'0:26.740',-0.140,-0.303,-0.209,0.571,90.000
'0:26.750',-0.255,-0.305,-0.209,0.570,90.000
'0:26.760',-0.200,-0.307,-0.210,0.570,90.000
'0:26.770',-0.155,-0.308,-0.212,0.569,90.000
'0:26.780',-0.140,-0.309,-0.213,0.569,90.000
'0:26.790',-0.180,-0.311,-0.215,0.568,90.000
'0:26.800',-0.160,-0.312,-0.216,0.568,90.000
'0:26.810',-0.165,-0.313,-0.217,0.567,90.000
'0:26.820',-0.025,-0.313,-0.219,0.566,90.000
'0:26.830',0.000,-0.313,-0.220,0.565,90.000
'0:26.840',0.045,-0.314,-0.221,0.565,90.000
'0:26.850',0.130,-0.314,-0.222,0.564,90.000
'0:26.860',0.150,-0.315,-0.222,0.563,90.000
'0:26.870',0.130,-0.315,-0.222,0.562,90.000
'0:26.880',0.070,-0.316,-0.222,0.561,90.000
'0:26.890',0.070,-0.317,-0.222,0.560,90.000
'0:26.900',0.035,-0.317,-0.221,0.559,90.000
'0:26.910',0.020,-0.318,-0.222,0.558,90.000
'0:26.920',-0.005,-0.318,-0.222,0.558,90.000
'0:26.930',0.000,-0.318,-0.223,0.557,90.000
'0:26.940',-0.015,-0.319,-0.223,0.556,90.000
'0:26.950',-0.020,-0.319,-0.223,0.555,90.000
'0:26.960',-0.070,-0.320,-0.224,0.554,90.000
