'Elapsed time','Resp C','Resp A','Resp N','SpO2'
'hh:mm:ss.mmm','mV','mV','mV','mV'
'0:00.000',-0.140,-0.144,0.109,93.000
'0:00.010',-0.141,-0.146,0.114,93.000
'0:00.020',-0.141,-0.149,0.120,93.000
'0:00.030',-0.141,-0.152,0.125,93.000
'0:00.040',-0.141,-0.154,0.131,93.000
'0:00.050',-0.142,-0.157,0.136,93.000
'0:00.060',-0.143,-0.160,0.141,93.000
'0:00.070',-0.144,-0.164,0.146,93.000
'0:00.080',-0.145,-0.168,0.151,93.000
'0:00.090',-0.146,-0.172,0.156,93.000
'0:00.100',-0.147,-0.176,0.162,93.000
'0:00.110',-0.148,-0.177,0.166,93.000
'0:00.120',-0.150,-0.178,0.171,93.000
'0:00.130',-0.152,-0.179,0.175,93.000
'0:00.140',-0.153,-0.180,0.180,93.000
'0:00.150',-0.155,-0.181,0.185,93.000
'0:00.160',-0.156,-0.185,0.189,93.000
'0:00.170',-0.157,-0.188,0.193,93.000
'0:00.180',-0.158,-0.192,0.196,93.000
'0:00.190',-0.160,-0.195,0.200,93.000
'0:00.200',-0.161,-0.199,0.204,93.000
'0:00.210',-0.161,-0.209,0.208,93.000
'0:00.220',-0.160,-0.219,0.211,93.000
'0:00.230',-0.160,-0.229,0.215,93.000
'0:00.240',-0.160,-0.240,0.218,93.000
'0:00.250',-0.159,-0.250,0.222,93.000
'0:00.260',-0.159,-0.258,0.225,93.000
'0:00.270',-0.158,-0.266,0.228,93.000
'0:00.280',-0.158,-0.275,0.231,93.000
'0:00.290',-0.157,-0.283,0.234,93.000
'0:00.300',-0.157,-0.291,0.237,93.000
'0:00.310',-0.157,-0.292,0.240,93.000
'0:00.320',-0.158,-0.292,0.242,93.000
'0:00.330',-0.159,-0.293,0.245,93.000
'0:00.340',-0.160,-0.294,0.247,93.000
'0:00.350',-0.160,-0.295,0.250,93.000
'0:00.360',-0.160,-0.296,0.252,93.000
'0:00.370',-0.161,-0.297,0.254,93.000
'0:00.380',-0.161,-0.298,0.257,93.000
'0:00.390',-0.161,-0.299,0.259,93.000
'0:00.400',-0.161,-0.300,0.261,93.000
'0:00.410',-0.162,-0.302,0.263,93.000
'0:00.420',-0.162,-0.305,0.265,93.000
'0:00.430',-0.163,-0.307,0.267,93.000
'0:00.440',-0.163,-0.310,0.269,93.000
'0:00.450',-0.164,-0.312,0.271,93.000
'0:00.460',-0.163,-0.316,0.273,93.000
'0:00.470',-0.162,-0.319,0.275,93.000
'0:00.480',-0.162,-0.322,0.277,93.000
'0:00.490',-0.161,-0.326,0.280,93.000
'0:00.500',-0.160,-0.329,0.282,93.000
'0:00.510',-0.160,-0.331,0.283,93.000
'0:00.520',-0.159,-0.333,0.285,93.000
'0:00.530',-0.158,-0.335,0.287,93.000
'0:00.540',-0.158,-0.338,0.289,93.000
'0:00.550',-0.157,-0.340,0.290,93.000
'0:00.560',-0.158,-0.340,0.292,93.000
'0:00.570',-0.159,-0.341,0.293,93.000
'0:00.580',-0.159,-0.341,0.294,93.000
'0:00.590',-0.160,-0.341,0.295,93.000
'0:00.600',-0.161,-0.342,0.297,93.000
'0:00.610',-0.161,-0.344,0.298,93.000
'0:00.620',-0.161,-0.345,0.299,93.000
'0:00.630',-0.162,-0.347,0.301,93.000
'0:00.640',-0.162,-0.349,0.302,93.000
'0:00.650',-0.162,-0.351,0.303,93.000
'0:00.660',-0.163,-0.352,0.305,93.000
'0:00.670',-0.164,-0.353,0.306,93.000
'0:00.680',-0.164,-0.354,0.307,93.000
'0:00.690',-0.165,-0.354,0.308,93.000
'0:00.700',-0.165,-0.355,0.310,93.000
'0:00.710',-0.165,-0.356,0.311,93.000
'0:00.720',-0.165,-0.357,0.312,93.000
'0:00.730',-0.164,-0.358,0.313,93.000
'0:00.740',-0.164,-0.359,0.314,93.000
'0:00.750',-0.164,-0.360,0.315,93.000
'0:00.760',-0.164,-0.360,0.315,93.000
'0:00.770',-0.164,-0.359,0.316,93.000
'0:00.780',-0.164,-0.358,0.317,93.000
'0:00.790',-0.165,-0.358,0.318,93.000
'0:00.800',-0.165,-0.357,0.319,93.000
'0:00.810',-0.165,-0.356,0.320,93.000
'0:00.820',-0.166,-0.354,0.320,93.000
'0:00.830',-0.166,-0.353,0.321,93.000
'0:00.840',-0.167,-0.351,0.322,93.000
'0:00.850',-0.167,-0.350,0.322,93.000
'0:00.860',-0.169,-0.348,0.323,93.000
'0:00.870',-0.170,-0.345,0.324,93.000
'0:00.880',-0.171,-0.343,0.324,93.000
'0:00.890',-0.173,-0.341,0.325,93.000
'0:00.900',-0.174,-0.339,0.326,93.000
'0:00.910',-0.174,-0.337,0.326,93.000
'0:00.920',-0.175,-0.335,0.326,93.000
'0:00.930',-0.175,-0.333,0.326,93.000
'0:00.940',-0.176,-0.331,0.326,93.000
'0:00.950',-0.176,-0.329,0.326,93.000
'0:00.960',-0.175,-0.331,0.325,93.000
'0:00.970',-0.173,-0.333,0.323,93.000
'0:00.980',-0.172,-0.336,0.322,93.000
'0:00.990',-0.170,-0.338,0.321,93.000
'0:01.000',-0.169,-0.340,0.320,93.000
'0:01.010',-0.168,-0.339,0.317,93.000
'0:01.020',-0.168,-0.339,0.315,93.000
'0:01.030',-0.167,-0.338,0.312,93.000
'0:01.040',-0.166,-0.338,0.309,93.000
'0:01.050',-0.166,-0.337,0.307,93.000
'0:01.060',-0.165,-0.334,0.302,93.000
'0:01.070',-0.164,-0.331,0.298,93.000
'0:01.080',-0.163,-0.329,0.293,93.000
'0:01.090',-0.161,-0.326,0.289,93.000
'0:01.100',-0.160,-0.323,0.285,93.000
'0:01.110',-0.160,-0.320,0.280,93.000
'0:01.120',-0.160,-0.317,0.274,93.000
'0:01.130',-0.160,-0.314,0.269,93.000
'0:01.140',-0.160,-0.311,0.264,93.000
'0:01.150',-0.159,-0.308,0.259,93.000
'0:01.160',-0.159,-0.306,0.253,93.000
'0:01.170',-0.159,-0.303,0.247,93.000
'0:01.180',-0.158,-0.300,0.241,93.000
'0:01.190',-0.158,-0.298,0.235,93.000
'0:01.200',-0.157,-0.295,0.230,93.000
'0:01.210',-0.155,-0.293,0.224,93.000
'0:01.220',-0.153,-0.291,0.218,93.000
'0:01.230',-0.151,-0.289,0.212,93.000
'0:01.240',-0.149,-0.286,0.206,93.000
'0:01.250',-0.146,-0.284,0.200,93.000
'0:01.260',-0.145,-0.279,0.194,93.000
'0:01.270',-0.144,-0.274,0.189,93.000
'0:01.280',-0.143,-0.269,0.183,93.000
'0:01.290',-0.142,-0.263,0.178,93.000
'0:01.300',-0.142,-0.258,0.172,93.000
'0:01.310',-0.141,-0.253,0.167,93.000
'0:01.320',-0.141,-0.248,0.161,93.000
'0:01.330',-0.140,-0.243,0.155,93.000
'0:01.340',-0.140,-0.238,0.150,93.000
'0:01.350',-0.139,-0.233,0.144,93.000
'0:01.360',-0.138,-0.231,0.139,93.000
'0:01.370',-0.137,-0.229,0.133,93.000
'0:01.380',-0.135,-0.226,0.128,93.000
'0:01.390',-0.134,-0.224,0.122,93.000
'0:01.400',-0.133,-0.222,0.117,93.000
'0:01.410',-0.132,-0.217,0.112,93.000
'0:01.420',-0.131,-0.213,0.106,93.000
'0:01.430',-0.131,-0.209,0.101,93.000
'0:01.440',-0.130,-0.204,0.096,93.000
'0:01.450',-0.129,-0.200,0.090,93.000
'0:01.460',-0.129,-0.191,0.085,93.000
'0:01.470',-0.128,-0.183,0.080,93.000
'0:01.480',-0.128,-0.175,0.075,93.000
'0:01.490',-0.127,-0.166,0.070,93.000
'0:01.500',-0.127,-0.158,0.065,93.000
'0:01.510',-0.126,-0.154,0.060,93.000
'0:01.520',-0.126,-0.149,0.055,93.000
'0:01.530',-0.126,-0.144,0.050,93.000
'0:01.540',-0.125,-0.140,0.045,93.000
'0:01.550',-0.125,-0.135,0.040,93.000
'0:01.560',-0.124,-0.134,0.035,93.000
'0:01.570',-0.123,-0.133,0.029,93.000
'0:01.580',-0.123,-0.132,0.025,93.000
'0:01.590',-0.122,-0.131,0.019,93.000
'0:01.600',-0.121,-0.130,0.014,93.000
'0:01.610',-0.122,-0.129,0.009,93.000
'0:01.620',-0.122,-0.127,0.005,93.000
'0:01.630',-0.122,-0.125,-0.000,93.000
'0:01.640',-0.122,-0.124,-0.005,93.000
'0:01.650',-0.122,-0.122,-0.010,93.000
'0:01.660',-0.121,-0.120,-0.015,93.000
'0:01.670',-0.121,-0.118,-0.019,93.000
'0:01.680',-0.120,-0.116,-0.024,93.000
'0:01.690',-0.119,-0.114,-0.029,93.000
'0:01.700',-0.119,-0.113,-0.034,93.000
'0:01.710',-0.117,-0.111,-0.039,93.000
'0:01.720',-0.116,-0.110,-0.044,93.000
'0:01.730',-0.115,-0.108,-0.049,93.000
'0:01.740',-0.113,-0.107,-0.054,93.000
'0:01.750',-0.112,-0.105,-0.059,93.000
'0:01.760',-0.111,-0.104,-0.063,93.000
'0:01.770',-0.111,-0.103,-0.068,93.000
'0:01.780',-0.110,-0.102,-0.073,93.000
'0:01.790',-0.110,-0.101,-0.078,93.000
'0:01.800',-0.109,-0.100,-0.083,93.000
'0:01.810',-0.108,-0.098,-0.087,93.000
'0:01.820',-0.107,-0.096,-0.092,93.000
'0:01.830',-0.107,-0.094,-0.097,93.000
'0:01.840',-0.106,-0.092,-0.101,93.000
'0:01.850',-0.105,-0.090,-0.106,93.000
'0:01.860',-0.103,-0.087,-0.111,93.000
'0:01.870',-0.102,-0.085,-0.116,93.000
'0:01.880',-0.101,-0.083,-0.120,93.000
'0:01.890',-0.100,-0.080,-0.125,93.000
'0:01.900',-0.098,-0.078,-0.130,93.000
'0:01.910',-0.097,-0.076,-0.135,93.000
'0:01.920',-0.097,-0.073,-0.140,93.000
'0:01.930',-0.096,-0.071,-0.144,93.000
'0:01.940',-0.095,-0.069,-0.149,93.000
'0:01.950',-0.094,-0.067,-0.154,94.000
'0:01.960',-0.093,-0.065,-0.158,94.000
'0:01.970',-0.093,-0.063,-0.163,94.000
'0:01.980',-0.092,-0.061,-0.168,94.000
'0:01.990',-0.092,-0.060,-0.172,94.000
'0:02.000',-0.091,-0.058,-0.177,94.000
'0:02.010',-0.090,-0.055,-0.182,94.000
'0:02.020',-0.089,-0.052,-0.186,94.000
'0:02.030',-0.088,-0.050,-0.191,94.000
'0:02.040',-0.087,-0.047,-0.195,94.000
'0:02.050',-0.086,-0.045,-0.200,94.000
'0:02.060',-0.085,-0.042,-0.204,94.000
'0:02.070',-0.084,-0.040,-0.208,94.000
'0:02.080',-0.083,-0.037,-0.213,94.000
'0:02.090',-0.082,-0.035,-0.217,94.000
'0:02.100',-0.082,-0.032,-0.221,94.000
'0:02.110',-0.081,-0.031,-0.225,94.000
'0:02.120',-0.081,-0.029,-0.230,94.000
'0:02.130',-0.080,-0.027,-0.234,94.000
'0:02.140',-0.080,-0.025,-0.238,94.000
'0:02.150',-0.079,-0.023,-0.242,94.000
'0:02.160',-0.078,-0.021,-0.246,94.000
'0:02.170',-0.077,-0.018,-0.250,94.000
'0:02.180',-0.076,-0.016,-0.253,94.000
'0:02.190',-0.075,-0.013,-0.257,94.000
'0:02.200',-0.073,-0.011,-0.261,94.000
'0:02.210',-0.073,-0.008,-0.265,94.000
'0:02.220',-0.073,-0.006,-0.268,94.000
'0:02.230',-0.072,-0.004,-0.272,94.000
'0:02.240',-0.072,-0.002,-0.276,94.000
'0:02.250',-0.071,0.000,-0.280,94.000
'0:02.260',-0.071,0.003,-0.283,94.000
'0:02.270',-0.070,0.005,-0.286,94.000
'0:02.280',-0.070,0.008,-0.290,94.000
'0:02.290',-0.069,0.010,-0.293,94.000
'0:02.300',-0.069,0.013,-0.297,94.000
'0:02.310',-0.069,0.015,-0.300,94.000
'0:02.320',-0.069,0.017,-0.303,94.000
'0:02.330',-0.069,0.019,-0.306,94.000
'0:02.340',-0.068,0.021,-0.309,94.000
'0:02.350',-0.068,0.023,-0.312,94.000
'0:02.360',-0.069,0.024,-0.315,94.000
'0:02.370',-0.071,0.026,-0.317,94.000
'0:02.380',-0.072,0.027,-0.320,94.000
'0:02.390',-0.073,0.028,-0.323,94.000
'0:02.400',-0.074,0.030,-0.326,94.000
'0:02.410',-0.075,0.031,-0.328,94.000
'0:02.420',-0.075,0.033,-0.330,94.000
'0:02.430',-0.076,0.034,-0.333,94.000
'0:02.440',-0.076,0.036,-0.335,94.000
'0:02.450',-0.077,0.037,-0.337,94.000
'0:02.460',-0.077,0.035,-0.339,94.000
'0:02.470',-0.077,0.033,-0.341,94.000
'0:02.480',-0.077,0.030,-0.343,94.000
'0:02.490',-0.077,0.028,-0.345,94.000
'0:02.500',-0.077,0.026,-0.346,94.000
'0:02.510',-0.076,0.022,-0.347,94.000
'0:02.520',-0.076,0.018,-0.348,94.000
'0:02.530',-0.076,0.014,-0.349,94.000
'0:02.540',-0.076,0.010,-0.350,94.000
'0:02.550',-0.075,0.005,-0.351,94.000
'0:02.560',-0.074,0.003,-0.350,94.000
'0:02.570',-0.074,0.000,-0.349,94.000
'0:02.580',-0.073,-0.002,-0.347,94.000
'0:02.590',-0.072,-0.005,-0.346,94.000
'0:02.600',-0.071,-0.007,-0.345,94.000
'0:02.610',-0.072,-0.010,-0.341,94.000
'0:02.620',-0.072,-0.013,-0.337,94.000
'0:02.630',-0.073,-0.015,-0.333,94.000
'0:02.640',-0.073,-0.018,-0.330,94.000
'0:02.650',-0.073,-0.021,-0.326,94.000
'0:02.660',-0.074,-0.023,-0.320,94.000
'0:02.670',-0.075,-0.026,-0.314,94.000
'0:02.680',-0.076,-0.028,-0.308,94.000
'0:02.690',-0.077,-0.030,-0.302,94.000
'0:02.700',-0.078,-0.033,-0.296,94.000
'0:02.710',-0.080,-0.035,-0.289,94.000
'0:02.720',-0.082,-0.038,-0.282,94.000
'0:02.730',-0.083,-0.041,-0.274,94.000
'0:02.740',-0.085,-0.043,-0.267,94.000
'0:02.750',-0.087,-0.046,-0.259,94.000
'0:02.760',-0.089,-0.049,-0.251,94.000
'0:02.770',-0.091,-0.052,-0.243,94.000
'0:02.780',-0.093,-0.055,-0.235,94.000
'0:02.790',-0.096,-0.058,-0.227,94.000
'0:02.800',-0.098,-0.061,-0.219,94.000
'0:02.810',-0.099,-0.063,-0.210,94.000
'0:02.820',-0.101,-0.065,-0.201,94.000
'0:02.830',-0.102,-0.068,-0.192,94.000
'0:02.840',-0.104,-0.070,-0.184,94.000
'0:02.850',-0.106,-0.073,-0.175,94.000
'0:02.860',-0.108,-0.076,-0.166,94.000
'0:02.870',-0.109,-0.078,-0.157,94.000
'0:02.880',-0.111,-0.081,-0.148,94.000
'0:02.890',-0.113,-0.084,-0.139,94.000
'0:02.900',-0.115,-0.087,-0.130,94.000
'0:02.910',-0.116,-0.089,-0.121,94.000
'0:02.920',-0.117,-0.091,-0.112,94.000
'0:02.930',-0.118,-0.094,-0.103,94.000
'0:02.940',-0.119,-0.096,-0.094,94.000
'0:02.950',-0.120,-0.099,-0.086,94.000
'0:02.960',-0.121,-0.100,-0.077,94.000
'0:02.970',-0.121,-0.102,-0.069,94.000
'0:02.980',-0.122,-0.104,-0.060,94.000
'0:02.990',-0.123,-0.105,-0.052,94.000
'0:03.000',-0.123,-0.107,-0.044,94.000
'0:03.010',-0.124,-0.109,-0.036,94.000
'0:03.020',-0.125,-0.111,-0.028,94.000
'0:03.030',-0.126,-0.114,-0.020,94.000
'0:03.040',-0.127,-0.116,-0.012,94.000
'0:03.050',-0.128,-0.118,-0.004,94.000
'0:03.060',-0.128,-0.120,0.003,94.000
'0:03.070',-0.129,-0.121,0.010,94.000
'0:03.080',-0.129,-0.123,0.018,94.000
'0:03.090',-0.130,-0.125,0.025,94.000
'0:03.100',-0.130,-0.126,0.032,94.000
'0:03.110',-0.131,-0.128,0.039,94.000
'0:03.120',-0.132,-0.131,0.045,94.000
'0:03.130',-0.133,-0.133,0.052,94.000
'0:03.140',-0.134,-0.135,0.059,94.000
'0:03.150',-0.135,-0.137,0.066,94.000
'0:03.160',-0.137,-0.140,0.071,94.000
'0:03.170',-0.139,-0.142,0.078,94.000
'0:03.180',-0.141,-0.144,0.084,94.000
'0:03.190',-0.143,-0.147,0.090,94.000
'0:03.200',-0.145,-0.149,0.096,94.000
'0:03.210',-0.146,-0.151,0.101,94.000
'0:03.220',-0.146,-0.152,0.106,94.000
'0:03.230',-0.147,-0.154,0.112,94.000
'0:03.240',-0.147,-0.156,0.117,94.000
'0:03.250',-0.148,-0.157,0.122,94.000
'0:03.260',-0.148,-0.166,0.127,94.000
'0:03.270',-0.148,-0.175,0.132,94.000
'0:03.280',-0.148,-0.184,0.136,94.000
'0:03.290',-0.148,-0.193,0.141,94.000
'0:03.300',-0.148,-0.202,0.146,94.000
'0:03.310',-0.147,-0.211,0.150,94.000
'0:03.320',-0.147,-0.219,0.154,94.000
'0:03.330',-0.147,-0.228,0.158,94.000
'0:03.340',-0.146,-0.237,0.162,94.000
'0:03.350',-0.146,-0.245,0.166,94.000
'0:03.360',-0.145,-0.246,0.169,94.000
'0:03.370',-0.145,-0.247,0.173,94.000
'0:03.380',-0.144,-0.247,0.176,94.000
'0:03.390',-0.144,-0.248,0.180,94.000
'0:03.400',-0.143,-0.249,0.183,94.000
'0:03.410',-0.145,-0.251,0.187,94.000
'0:03.420',-0.146,-0.252,0.190,94.000
'0:03.430',-0.147,-0.254,0.193,94.000
'0:03.440',-0.148,-0.256,0.197,94.000
'0:03.450',-0.150,-0.258,0.200,94.000
'0:03.460',-0.149,-0.263,0.203,94.000
'0:03.470',-0.149,-0.268,0.206,94.000
'0:03.480',-0.149,-0.273,0.209,94.000
'0:03.490',-0.148,-0.277,0.212,94.000
'0:03.500',-0.148,-0.282,0.215,94.000
'0:03.510',-0.149,-0.285,0.218,94.000
'0:03.520',-0.149,-0.288,0.220,94.000
'0:03.530',-0.150,-0.292,0.223,94.000
'0:03.540',-0.150,-0.295,0.226,94.000
'0:03.550',-0.151,-0.298,0.228,94.000
'0:03.560',-0.151,-0.299,0.231,94.000
'0:03.570',-0.152,-0.300,0.233,94.000
'0:03.580',-0.152,-0.301,0.235,94.000
'0:03.590',-0.153,-0.302,0.238,94.000
'0:03.600',-0.153,-0.304,0.240,94.000
'0:03.610',-0.152,-0.306,0.242,94.000
'0:03.620',-0.151,-0.309,0.244,94.000
'0:03.630',-0.150,-0.312,0.247,94.000
'0:03.640',-0.150,-0.314,0.249,94.000
'0:03.650',-0.149,-0.317,0.251,94.000
'0:03.660',-0.149,-0.321,0.253,94.000
'0:03.670',-0.150,-0.324,0.255,94.000
'0:03.680',-0.150,-0.328,0.257,94.000
'0:03.690',-0.150,-0.331,0.259,94.000
'0:03.700',-0.151,-0.335,0.261,94.000
'0:03.710',-0.151,-0.335,0.262,94.000
'0:03.720',-0.152,-0.336,0.264,94.000
'0:03.730',-0.152,-0.336,0.265,94.000
'0:03.740',-0.152,-0.336,0.267,94.000
'0:03.750',-0.153,-0.337,0.268,94.000
'0:03.760',-0.153,-0.337,0.270,94.000
'0:03.770',-0.153,-0.338,0.271,94.000
'0:03.780',-0.153,-0.338,0.272,94.000
'0:03.790',-0.153,-0.339,0.274,94.000
'0:03.800',-0.153,-0.340,0.275,94.000
'0:03.810',-0.153,-0.341,0.277,94.000
'0:03.820',-0.154,-0.342,0.278,94.000
'0:03.830',-0.154,-0.343,0.279,94.000
'0:03.840',-0.155,-0.344,0.281,94.000
'0:03.850',-0.155,-0.346,0.282,94.000
'0:03.860',-0.157,-0.345,0.283,94.000
'0:03.870',-0.158,-0.344,0.284,94.000
'0:03.880',-0.160,-0.344,0.285,94.000
'0:03.890',-0.161,-0.343,0.286,94.000
'0:03.900',-0.162,-0.343,0.287,94.000
'0:03.910',-0.163,-0.343,0.288,94.000
'0:03.920',-0.163,-0.343,0.289,94.000
'0:03.930',-0.163,-0.343,0.290,94.000
'0:03.940',-0.164,-0.343,0.291,94.000
'0:03.950',-0.164,-0.344,0.291,94.000
'0:03.960',-0.163,-0.342,0.292,94.000
'0:03.970',-0.163,-0.341,0.292,94.000
'0:03.980',-0.163,-0.340,0.292,94.000
'0:03.990',-0.162,-0.339,0.293,94.000
'0:04.000',-0.162,-0.337,0.293,94.000
'0:04.010',-0.162,-0.340,0.292,94.000
'0:04.020',-0.162,-0.343,0.292,94.000
'0:04.030',-0.162,-0.346,0.291,94.000
'0:04.040',-0.162,-0.349,0.291,94.000
'0:04.050',-0.162,-0.352,0.290,94.000
'0:04.060',-0.162,-0.353,0.289,94.000
'0:04.070',-0.162,-0.354,0.288,94.000
'0:04.080',-0.162,-0.355,0.287,94.000
'0:04.090',-0.163,-0.357,0.285,94.000
'0:04.100',-0.163,-0.358,0.284,94.000
'0:04.110',-0.162,-0.356,0.282,94.000
'0:04.120',-0.162,-0.354,0.280,94.000
'0:04.130',-0.162,-0.351,0.277,94.000
'0:04.140',-0.162,-0.349,0.275,94.000
'0:04.150',-0.161,-0.347,0.273,94.000
'0:04.160',-0.161,-0.349,0.271,94.000
'0:04.170',-0.160,-0.350,0.269,94.000
'0:04.180',-0.160,-0.352,0.266,94.000
'0:04.190',-0.160,-0.353,0.264,94.000
'0:04.200',-0.159,-0.355,0.262,94.000
'0:04.210',-0.159,-0.355,0.260,94.000
'0:04.220',-0.160,-0.356,0.259,94.000
'0:04.230',-0.160,-0.356,0.257,94.000
'0:04.240',-0.160,-0.356,0.256,94.000
'0:04.250',-0.160,-0.357,0.255,94.000
'0:04.260',-0.160,-0.357,0.254,94.000
'0:04.270',-0.159,-0.357,0.253,94.000
'0:04.280',-0.158,-0.357,0.253,94.000
'0:04.290',-0.158,-0.357,0.252,94.000
'0:04.300',-0.157,-0.357,0.252,94.000
'0:04.310',-0.157,-0.356,0.252,94.000
'0:04.320',-0.156,-0.354,0.252,94.000
'0:04.330',-0.156,-0.353,0.252,94.000
'0:04.340',-0.155,-0.352,0.252,94.000
'0:04.350',-0.155,-0.351,0.252,94.000
'0:04.360',-0.155,-0.349,0.252,94.000
'0:04.370',-0.155,-0.348,0.252,94.000
'0:04.380',-0.155,-0.347,0.253,94.000
'0:04.390',-0.155,-0.346,0.253,94.000
'0:04.400',-0.156,-0.344,0.253,94.000
'0:04.410',-0.156,-0.344,0.253,94.000
'0:04.420',-0.156,-0.343,0.253,94.000
'0:04.430',-0.156,-0.343,0.253,94.000
'0:04.440',-0.155,-0.342,0.252,94.000
'0:04.450',-0.155,-0.341,0.252,94.000
'0:04.460',-0.155,-0.340,0.252,94.000
'0:04.470',-0.155,-0.339,0.251,94.000
'0:04.480',-0.154,-0.338,0.251,94.000
'0:04.490',-0.154,-0.337,0.250,94.000
'0:04.500',-0.154,-0.336,0.250,94.000
'0:04.510',-0.154,-0.336,0.248,94.000
'0:04.520',-0.154,-0.335,0.247,94.000
'0:04.530',-0.154,-0.335,0.246,94.000
'0:04.540',-0.154,-0.334,0.245,94.000
'0:04.550',-0.154,-0.334,0.244,94.000
'0:04.560',-0.155,-0.332,0.241,94.000
'0:04.570',-0.156,-0.330,0.239,94.000
'0:04.580',-0.157,-0.327,0.237,94.000
'0:04.590',-0.157,-0.325,0.235,94.000
'0:04.600',-0.158,-0.323,0.233,94.000
'0:04.610',-0.159,-0.321,0.230,94.000
'0:04.620',-0.160,-0.320,0.227,94.000
'0:04.630',-0.160,-0.319,0.225,94.000
'0:04.640',-0.161,-0.317,0.222,94.000
'0:04.650',-0.162,-0.316,0.219,94.000
'0:04.660',-0.162,-0.313,0.216,94.000
'0:04.670',-0.161,-0.311,0.213,94.000
'0:04.680',-0.161,-0.309,0.211,94.000
'0:04.690',-0.161,-0.307,0.208,94.000
'0:04.700',-0.161,-0.304,0.205,94.000
'0:04.710',-0.160,-0.303,0.202,94.000
'0:04.720',-0.159,-0.301,0.199,94.000
'0:04.730',-0.158,-0.299,0.196,94.000
'0:04.740',-0.157,-0.298,0.192,94.000
'0:04.750',-0.156,-0.296,0.189,94.000
'0:04.760',-0.156,-0.295,0.185,94.000
'0:04.770',-0.156,-0.294,0.182,94.000
'0:04.780',-0.156,-0.294,0.179,94.000
'0:04.790',-0.155,-0.293,0.175,94.000
'0:04.800',-0.155,-0.292,0.172,94.000
'0:04.810',-0.155,-0.289,0.168,94.000
'0:04.820',-0.154,-0.287,0.164,94.000
'0:04.830',-0.154,-0.284,0.161,94.000
'0:04.840',-0.153,-0.282,0.157,94.000
'0:04.850',-0.153,-0.280,0.154,94.000
'0:04.860',-0.151,-0.280,0.150,94.000
'0:04.870',-0.150,-0.280,0.146,94.000
'0:04.880',-0.148,-0.280,0.143,94.000
'0:04.890',-0.146,-0.280,0.139,94.000
'0:04.900',-0.145,-0.280,0.135,94.000
'0:04.910',-0.144,-0.279,0.131,94.000
'0:04.920',-0.143,-0.278,0.128,94.000
'0:04.930',-0.142,-0.277,0.124,94.000
'0:04.940',-0.141,-0.276,0.120,94.000
'0:04.950',-0.140,-0.275,0.116,94.000
'0:04.960',-0.138,-0.270,0.112,94.000
'0:04.970',-0.137,-0.265,0.108,94.000
'0:04.980',-0.135,-0.261,0.104,94.000
'0:04.990',-0.134,-0.256,0.101,94.000
'0:05.000',-0.132,-0.252,0.097,94.000
'0:05.010',-0.131,-0.243,0.093,94.000
'0:05.020',-0.130,-0.235,0.089,94.000
'0:05.030',-0.129,-0.227,0.085,94.000
'0:05.040',-0.128,-0.219,0.081,94.000
'0:05.050',-0.127,-0.211,0.077,94.000
'0:05.060',-0.128,-0.204,0.073,94.000
'0:05.070',-0.128,-0.197,0.069,94.000
'0:05.080',-0.128,-0.190,0.065,94.000
'0:05.090',-0.128,-0.183,0.060,94.000
'0:05.100',-0.128,-0.177,0.056,94.000
'0:05.110',-0.127,-0.172,0.052,94.000
'0:05.120',-0.125,-0.167,0.048,94.000
'0:05.130',-0.124,-0.163,0.044,94.000
'0:05.140',-0.123,-0.158,0.040,94.000
'0:05.150',-0.121,-0.153,0.035,94.000
'0:05.160',-0.121,-0.149,0.031,94.000
'0:05.170',-0.121,-0.145,0.027,94.000
'0:05.180',-0.120,-0.141,0.023,94.000
'0:05.190',-0.120,-0.137,0.018,94.000
'0:05.200',-0.120,-0.133,0.014,94.000
'0:05.210',-0.119,-0.132,0.009,94.000
'0:05.220',-0.119,-0.130,0.005,94.000
'0:05.230',-0.119,-0.129,0.000,94.000
'0:05.240',-0.119,-0.127,-0.004,94.000
'0:05.250',-0.118,-0.126,-0.009,94.000
'0:05.260',-0.117,-0.124,-0.013,94.000
'0:05.270',-0.116,-0.121,-0.017,94.000
'0:05.280',-0.115,-0.119,-0.022,94.000
'0:05.290',-0.113,-0.116,-0.026,94.000
'0:05.300',-0.112,-0.114,-0.030,94.000
'0:05.310',-0.111,-0.112,-0.035,94.000
'0:05.320',-0.110,-0.109,-0.039,94.000
'0:05.330',-0.109,-0.107,-0.044,94.000
'0:05.340',-0.108,-0.105,-0.048,94.000
'0:05.350',-0.107,-0.103,-0.053,94.000
'0:05.360',-0.107,-0.102,-0.057,94.000
'0:05.370',-0.107,-0.101,-0.061,94.000
'0:05.380',-0.107,-0.100,-0.066,94.000
'0:05.390',-0.107,-0.099,-0.070,94.000
'0:05.400',-0.107,-0.098,-0.074,94.000
'0:05.410',-0.108,-0.097,-0.079,94.000
'0:05.420',-0.108,-0.095,-0.083,94.000
'0:05.430',-0.109,-0.094,-0.087,94.000
'0:05.440',-0.110,-0.093,-0.091,94.000
'0:05.450',-0.110,-0.092,-0.095,94.000
'0:05.460',-0.109,-0.090,-0.100,94.000
'0:05.470',-0.108,-0.089,-0.104,94.000
'0:05.480',-0.107,-0.087,-0.109,94.000
'0:05.490',-0.106,-0.085,-0.113,94.000
'0:05.500',-0.104,-0.083,-0.117,94.000
'0:05.510',-0.103,-0.082,-0.122,94.000
'0:05.520',-0.102,-0.080,-0.126,94.000
'0:05.530',-0.101,-0.078,-0.131,94.000
'0:05.540',-0.099,-0.077,-0.135,94.000
'0:05.550',-0.098,-0.075,-0.140,94.000
'0:05.560',-0.097,-0.074,-0.144,94.000
'0:05.570',-0.097,-0.073,-0.148,94.000
'0:05.580',-0.096,-0.072,-0.152,94.000
'0:05.590',-0.095,-0.070,-0.157,94.000
'0:05.600',-0.094,-0.069,-0.161,94.000
'0:05.610',-0.093,-0.067,-0.165,94.000
'0:05.620',-0.092,-0.064,-0.170,94.000
'0:05.630',-0.091,-0.061,-0.174,94.000
'0:05.640',-0.089,-0.059,-0.178,94.000
'0:05.650',-0.088,-0.056,-0.183,94.000
'0:05.660',-0.087,-0.054,-0.187,94.000
'0:05.670',-0.087,-0.051,-0.191,94.000
'0:05.680',-0.086,-0.049,-0.196,94.000
'0:05.690',-0.085,-0.046,-0.200,94.000
'0:05.700',-0.084,-0.044,-0.204,94.000
'0:05.710',-0.083,-0.042,-0.209,94.000
'0:05.720',-0.082,-0.040,-0.213,94.000
'0:05.730',-0.081,-0.038,-0.217,94.000
'0:05.740',-0.081,-0.036,-0.221,94.000
'0:05.750',-0.080,-0.034,-0.225,94.000
'0:05.760',-0.078,-0.031,-0.229,94.000
'0:05.770',-0.077,-0.029,-0.233,94.000
'0:05.780',-0.076,-0.026,-0.237,94.000
'0:05.790',-0.075,-0.023,-0.241,94.000
'0:05.800',-0.074,-0.021,-0.245,94.000
'0:05.810',-0.073,-0.018,-0.248,94.000
'0:05.820',-0.073,-0.016,-0.252,94.000
'0:05.830',-0.072,-0.014,-0.256,94.000
'0:05.840',-0.072,-0.011,-0.260,94.000
'0:05.850',-0.072,-0.009,-0.264,94.000
'0:05.860',-0.072,-0.005,-0.267,94.000
'0:05.870',-0.071,-0.002,-0.270,94.000
'0:05.880',-0.071,0.001,-0.274,94.000
'0:05.890',-0.071,0.004,-0.277,94.000
'0:05.900',-0.071,0.008,-0.281,94.000
'0:05.910',-0.070,0.010,-0.284,94.000
'0:05.920',-0.069,0.012,-0.287,94.000
'0:05.930',-0.068,0.014,-0.290,94.000
'0:05.940',-0.066,0.016,-0.293,94.000
'0:05.950',-0.065,0.018,-0.296,94.000
'0:05.960',-0.064,0.021,-0.299,93.000
'0:05.970',-0.063,0.024,-0.302,93.000
'0:05.980',-0.063,0.026,-0.306,93.000
'0:05.990',-0.062,0.029,-0.309,93.000
'0:06.000',-0.061,0.032,-0.312,93.000
'0:06.010',-0.062,0.035,-0.315,93.000
'0:06.020',-0.062,0.039,-0.318,93.000
'0:06.030',-0.063,0.042,-0.321,93.000
'0:06.040',-0.064,0.046,-0.324,93.000
'0:06.050',-0.065,0.050,-0.327,93.000
'0:06.060',-0.065,0.053,-0.330,93.000
'0:06.070',-0.065,0.057,-0.332,93.000
'0:06.080',-0.066,0.060,-0.335,93.000
'0:06.090',-0.066,0.064,-0.338,93.000
'0:06.100',-0.066,0.067,-0.341,93.000
'0:06.110',-0.067,0.070,-0.343,93.000
'0:06.120',-0.068,0.073,-0.346,93.000
'0:06.130',-0.068,0.076,-0.348,93.000
'0:06.140',-0.069,0.078,-0.351,93.000
'0:06.150',-0.070,0.081,-0.353,93.000
'0:06.160',-0.071,0.082,-0.355,93.000
'0:06.170',-0.073,0.082,-0.357,93.000
'0:06.180',-0.075,0.083,-0.359,93.000
'0:06.190',-0.076,0.083,-0.361,93.000
'0:06.200',-0.078,0.084,-0.363,93.000
'0:06.210',-0.078,0.084,-0.364,93.000
'0:06.220',-0.078,0.083,-0.366,93.000
'0:06.230',-0.078,0.083,-0.367,93.000
'0:06.240',-0.078,0.083,-0.368,93.000
'0:06.250',-0.078,0.083,-0.370,93.000
'0:06.260',-0.077,0.080,-0.371,93.000
'0:06.270',-0.076,0.076,-0.371,93.000
'0:06.280',-0.075,0.073,-0.372,93.000
'0:06.290',-0.074,0.070,-0.373,93.000
'0:06.300',-0.074,0.067,-0.374,93.000
'0:06.310',-0.074,0.062,-0.373,93.000
'0:06.320',-0.074,0.056,-0.372,93.000
'0:06.330',-0.074,0.051,-0.372,93.000
'0:06.340',-0.074,0.045,-0.371,93.000
'0:06.350',-0.074,0.040,-0.370,93.000
'0:06.360',-0.074,0.035,-0.367,93.000
'0:06.370',-0.074,0.029,-0.364,93.000
'0:06.380',-0.074,0.024,-0.361,93.000
'0:06.390',-0.074,0.019,-0.358,93.000
'0:06.400',-0.074,0.013,-0.355,93.000
'0:06.410',-0.074,0.010,-0.350,93.000
'0:06.420',-0.073,0.007,-0.345,93.000
'0:06.430',-0.073,0.004,-0.340,93.000
'0:06.440',-0.072,0.000,-0.335,93.000
'0:06.450',-0.072,-0.003,-0.330,93.000
'0:06.460',-0.073,-0.005,-0.324,93.000
'0:06.470',-0.073,-0.007,-0.317,93.000
'0:06.480',-0.074,-0.010,-0.311,93.000
'0:06.490',-0.075,-0.012,-0.304,93.000
'0:06.500',-0.076,-0.014,-0.298,93.000
'0:06.510',-0.077,-0.016,-0.291,93.000
'0:06.520',-0.078,-0.018,-0.283,93.000
'0:06.530',-0.080,-0.021,-0.276,93.000
'0:06.540',-0.081,-0.023,-0.269,93.000
'0:06.550',-0.082,-0.025,-0.262,93.000
'0:06.560',-0.081,-0.026,-0.255,93.000
'0:06.570',-0.081,-0.027,-0.247,93.000
'0:06.580',-0.081,-0.028,-0.240,93.000
'0:06.590',-0.081,-0.029,-0.233,93.000
'0:06.600',-0.081,-0.031,-0.226,93.000
'0:06.610',-0.082,-0.032,-0.219,93.000
'0:06.620',-0.083,-0.034,-0.212,93.000
'0:06.630',-0.083,-0.036,-0.205,93.000
'0:06.640',-0.084,-0.037,-0.199,93.000
'0:06.650',-0.085,-0.039,-0.192,93.000
'0:06.660',-0.086,-0.040,-0.185,93.000
'0:06.670',-0.086,-0.042,-0.179,93.000
'0:06.680',-0.086,-0.043,-0.172,93.000
'0:06.690',-0.087,-0.045,-0.166,93.000
'0:06.700',-0.088,-0.047,-0.160,93.000
'0:06.710',-0.088,-0.048,-0.153,93.000
'0:06.720',-0.089,-0.050,-0.147,93.000
'0:06.730',-0.090,-0.052,-0.141,93.000
'0:06.740',-0.091,-0.054,-0.135,93.000
'0:06.750',-0.092,-0.055,-0.129,93.000
'0:06.760',-0.092,-0.057,-0.123,93.000
'0:06.770',-0.093,-0.058,-0.118,93.000
'0:06.780',-0.094,-0.059,-0.112,93.000
'0:06.790',-0.094,-0.060,-0.107,93.000
'0:06.800',-0.095,-0.061,-0.101,93.000
'0:06.810',-0.095,-0.061,-0.096,93.000
'0:06.820',-0.095,-0.062,-0.091,93.000
'0:06.830',-0.095,-0.063,-0.085,93.000
'0:06.840',-0.095,-0.064,-0.080,93.000
'0:06.850',-0.095,-0.064,-0.075,93.000
'0:06.860',-0.096,-0.065,-0.070,93.000
'0:06.870',-0.096,-0.066,-0.065,93.000
'0:06.880',-0.096,-0.067,-0.060,93.000
'0:06.890',-0.096,-0.068,-0.056,93.000
'0:06.900',-0.096,-0.069,-0.051,93.000
'0:06.910',-0.097,-0.069,-0.046,93.000
'0:06.920',-0.097,-0.070,-0.042,93.000
'0:06.930',-0.097,-0.071,-0.037,93.000
'0:06.940',-0.098,-0.071,-0.033,93.000
'0:06.950',-0.098,-0.072,-0.028,93.000
'0:06.960',-0.100,-0.074,-0.024,92.000
'0:06.970',-0.102,-0.075,-0.019,92.000
'0:06.980',-0.103,-0.077,-0.015,92.000
'0:06.990',-0.105,-0.078,-0.010,92.000
'0:07.000',-0.107,-0.080,-0.006,92.000
'0:07.010',-0.108,-0.081,-0.002,92.000
'0:07.020',-0.109,-0.082,0.002,92.000
'0:07.030',-0.110,-0.083,0.006,92.000
'0:07.040',-0.111,-0.084,0.011,92.000
'0:07.050',-0.112,-0.085,0.015,92.000
'0:07.060',-0.112,-0.086,0.019,92.000
'0:07.070',-0.113,-0.087,0.023,92.000
'0:07.080',-0.113,-0.088,0.027,92.000
'0:07.090',-0.114,-0.088,0.031,92.000
'0:07.100',-0.114,-0.089,0.035,92.000
'0:07.110',-0.115,-0.091,0.039,92.000
'0:07.120',-0.117,-0.093,0.043,92.000
'0:07.130',-0.118,-0.095,0.047,92.000
'0:07.140',-0.119,-0.096,0.051,92.000
'0:07.150',-0.121,-0.098,0.056,92.000
'0:07.160',-0.122,-0.100,0.060,92.000
'0:07.170',-0.124,-0.102,0.065,92.000
'0:07.180',-0.126,-0.104,0.069,92.000
'0:07.190',-0.128,-0.106,0.074,92.000
'0:07.200',-0.129,-0.108,0.078,92.000
'0:07.210',-0.130,-0.109,0.083,92.000
'0:07.220',-0.131,-0.109,0.088,92.000
'0:07.230',-0.132,-0.110,0.093,92.000
'0:07.240',-0.132,-0.111,0.099,92.000
'0:07.250',-0.133,-0.112,0.104,92.000
'0:07.260',-0.134,-0.113,0.109,92.000
'0:07.270',-0.134,-0.114,0.115,92.000
'0:07.280',-0.134,-0.116,0.120,92.000
'0:07.290',-0.134,-0.117,0.126,92.000
'0:07.300',-0.135,-0.118,0.132,92.000
'0:07.310',-0.136,-0.120,0.137,92.000
'0:07.320',-0.137,-0.122,0.143,92.000
'0:07.330',-0.138,-0.124,0.149,92.000
'0:07.340',-0.139,-0.126,0.154,92.000
'0:07.350',-0.141,-0.128,0.160,92.000
'0:07.360',-0.141,-0.130,0.166,92.000
'0:07.370',-0.142,-0.132,0.171,92.000
'0:07.380',-0.143,-0.134,0.176,92.000
'0:07.390',-0.144,-0.135,0.182,92.000
'0:07.400',-0.144,-0.137,0.187,92.000
'0:07.410',-0.144,-0.138,0.192,92.000
'0:07.420',-0.144,-0.140,0.198,92.000
'0:07.430',-0.144,-0.141,0.203,92.000
'0:07.440',-0.144,-0.142,0.208,92.000
'0:07.450',-0.144,-0.144,0.213,92.000
'0:07.460',-0.144,-0.144,0.218,92.000
'0:07.470',-0.144,-0.145,0.223,92.000
'0:07.480',-0.143,-0.146,0.228,92.000
'0:07.490',-0.143,-0.147,0.233,92.000
'0:07.500',-0.143,-0.148,0.237,92.000
'0:07.510',-0.143,-0.152,0.242,92.000
'0:07.520',-0.144,-0.156,0.246,92.000
'0:07.530',-0.144,-0.160,0.251,92.000
'0:07.540',-0.144,-0.163,0.255,92.000
'0:07.550',-0.145,-0.167,0.260,92.000
'0:07.560',-0.145,-0.172,0.264,92.000
'0:07.570',-0.146,-0.177,0.268,92.000
'0:07.580',-0.146,-0.182,0.272,92.000
'0:07.590',-0.146,-0.187,0.275,92.000
'0:07.600',-0.147,-0.192,0.279,92.000
'0:07.610',-0.147,-0.196,0.283,92.000
'0:07.620',-0.147,-0.201,0.286,92.000
'0:07.630',-0.146,-0.205,0.290,92.000
'0:07.640',-0.146,-0.210,0.294,92.000
'0:07.650',-0.146,-0.214,0.297,92.000
'0:07.660',-0.147,-0.219,0.300,92.000
'0:07.670',-0.147,-0.224,0.303,92.000
'0:07.680',-0.148,-0.228,0.307,92.000
'0:07.690',-0.148,-0.233,0.310,92.000
'0:07.700',-0.148,-0.238,0.313,92.000
'0:07.710',-0.150,-0.239,0.316,92.000
'0:07.720',-0.151,-0.240,0.318,92.000
'0:07.730',-0.152,-0.241,0.321,92.000
'0:07.740',-0.154,-0.242,0.323,92.000
'0:07.750',-0.155,-0.243,0.326,92.000
'0:07.760',-0.156,-0.241,0.328,92.000
'0:07.770',-0.157,-0.239,0.331,92.000
'0:07.780',-0.158,-0.238,0.333,92.000
'0:07.790',-0.160,-0.236,0.335,92.000
'0:07.800',-0.161,-0.234,0.338,92.000
'0:07.810',-0.161,-0.238,0.340,92.000
'0:07.820',-0.161,-0.243,0.341,92.000
'0:07.830',-0.161,-0.248,0.343,92.000
'0:07.840',-0.162,-0.252,0.345,92.000
'0:07.850',-0.162,-0.257,0.347,92.000
'0:07.860',-0.162,-0.264,0.348,92.000
'0:07.870',-0.162,-0.272,0.349,92.000
'0:07.880',-0.162,-0.279,0.350,92.000
'0:07.890',-0.162,-0.286,0.352,92.000
'0:07.900',-0.162,-0.294,0.353,92.000
'0:07.910',-0.162,-0.295,0.354,92.000
'0:07.920',-0.162,-0.296,0.355,92.000
'0:07.930',-0.162,-0.297,0.356,92.000
'0:07.940',-0.162,-0.298,0.358,92.000
'0:07.950',-0.162,-0.298,0.359,92.000
'0:07.960',-0.162,-0.296,0.359,92.000
'0:07.970',-0.162,-0.294,0.360,92.000
'0:07.980',-0.163,-0.292,0.361,92.000
'0:07.990',-0.163,-0.290,0.362,92.000
'0:08.000',-0.163,-0.287,0.362,92.000
'0:08.010',-0.163,-0.286,0.363,92.000
'0:08.020',-0.164,-0.284,0.364,92.000
'0:08.030',-0.164,-0.283,0.364,92.000
'0:08.040',-0.164,-0.282,0.365,92.000
'0:08.050',-0.164,-0.280,0.366,92.000
'0:08.060',-0.164,-0.284,0.366,92.000
'0:08.070',-0.165,-0.288,0.367,92.000
'0:08.080',-0.165,-0.292,0.367,92.000
'0:08.090',-0.165,-0.296,0.368,92.000
'0:08.100',-0.165,-0.299,0.368,92.000
'0:08.110',-0.165,-0.299,0.368,92.000
'0:08.120',-0.165,-0.299,0.369,92.000
'0:08.130',-0.165,-0.299,0.369,92.000
'0:08.140',-0.165,-0.299,0.369,92.000
'0:08.150',-0.165,-0.300,0.370,92.000
'0:08.160',-0.165,-0.294,0.369,92.000
'0:08.170',-0.164,-0.288,0.369,92.000
'0:08.180',-0.164,-0.282,0.369,92.000
'0:08.190',-0.163,-0.276,0.369,92.000
'0:08.200',-0.163,-0.270,0.369,92.000
'0:08.210',-0.162,-0.268,0.368,92.000
'0:08.220',-0.161,-0.266,0.366,92.000
'0:08.230',-0.160,-0.264,0.365,92.000
'0:08.240',-0.160,-0.261,0.364,92.000
'0:08.250',-0.159,-0.259,0.362,92.000
'0:08.260',-0.158,-0.257,0.359,92.000
'0:08.270',-0.157,-0.254,0.356,92.000
'0:08.280',-0.156,-0.251,0.352,92.000
'0:08.290',-0.155,-0.249,0.349,92.000
'0:08.300',-0.154,-0.246,0.345,92.000
'0:08.310',-0.154,-0.243,0.340,92.000
'0:08.320',-0.154,-0.241,0.335,92.000
'0:08.330',-0.154,-0.238,0.330,92.000
'0:08.340',-0.154,-0.235,0.325,92.000
'0:08.350',-0.154,-0.233,0.319,92.000
'0:08.360',-0.153,-0.230,0.313,92.000
'0:08.370',-0.152,-0.227,0.307,92.000
'0:08.380',-0.151,-0.224,0.301,92.000
'0:08.390',-0.150,-0.221,0.294,92.000
'0:08.400',-0.149,-0.218,0.288,92.000
'0:08.410',-0.148,-0.212,0.281,92.000
'0:08.420',-0.148,-0.206,0.275,92.000
'0:08.430',-0.147,-0.201,0.268,92.000
'0:08.440',-0.147,-0.195,0.262,92.000
'0:08.450',-0.146,-0.189,0.255,92.000
'0:08.460',-0.147,-0.184,0.249,92.000
'0:08.470',-0.148,-0.179,0.242,92.000
'0:08.480',-0.149,-0.174,0.236,92.000
'0:08.490',-0.150,-0.168,0.229,92.000
'0:08.500',-0.150,-0.163,0.223,92.000
'0:08.510',-0.150,-0.161,0.217,92.000
'0:08.520',-0.149,-0.158,0.210,92.000
'0:08.530',-0.149,-0.156,0.204,92.000
'0:08.540',-0.148,-0.154,0.198,92.000
'0:08.550',-0.148,-0.151,0.191,92.000
'0:08.560',-0.146,-0.150,0.185,92.000
'0:08.570',-0.145,-0.148,0.179,92.000
'0:08.580',-0.144,-0.146,0.173,92.000
'0:08.590',-0.142,-0.145,0.167,92.000
'0:08.600',-0.141,-0.143,0.161,92.000
'0:08.610',-0.140,-0.142,0.156,92.000
'0:08.620',-0.139,-0.141,0.150,92.000
'0:08.630',-0.139,-0.139,0.144,92.000
'0:08.640',-0.138,-0.138,0.138,92.000
'0:08.650',-0.137,-0.137,0.133,92.000
'0:08.660',-0.135,-0.134,0.127,92.000
'0:08.670',-0.134,-0.132,0.121,92.000
'0:08.680',-0.132,-0.130,0.116,92.000
'0:08.690',-0.131,-0.128,0.110,92.000
'0:08.700',-0.129,-0.126,0.105,92.000
'0:08.710',-0.127,-0.122,0.099,92.000
'0:08.720',-0.125,-0.119,0.094,92.000
'0:08.730',-0.123,-0.115,0.088,92.000
'0:08.740',-0.121,-0.112,0.083,92.000
'0:08.750',-0.119,-0.109,0.077,92.000
'0:08.760',-0.118,-0.106,0.072,92.000
'0:08.770',-0.117,-0.104,0.067,92.000
'0:08.780',-0.116,-0.102,0.062,92.000
'0:08.790',-0.114,-0.100,0.057,92.000
'0:08.800',-0.113,-0.098,0.051,92.000
'0:08.810',-0.113,-0.096,0.046,92.000
'0:08.820',-0.112,-0.094,0.041,92.000
'0:08.830',-0.111,-0.092,0.036,92.000
'0:08.840',-0.110,-0.090,0.031,92.000
'0:08.850',-0.110,-0.088,0.026,92.000
'0:08.860',-0.109,-0.086,0.021,92.000
'0:08.870',-0.108,-0.084,0.016,92.000
'0:08.880',-0.108,-0.082,0.011,92.000
'0:08.890',-0.107,-0.080,0.006,92.000
'0:08.900',-0.106,-0.078,0.001,92.000
'0:08.910',-0.106,-0.076,-0.004,92.000
'0:08.920',-0.105,-0.074,-0.009,92.000
'0:08.930',-0.105,-0.072,-0.013,92.000
'0:08.940',-0.104,-0.070,-0.018,92.000
'0:08.950',-0.104,-0.068,-0.023,92.000
'0:08.960',-0.103,-0.066,-0.028,92.000
'0:08.970',-0.101,-0.064,-0.033,92.000
'0:08.980',-0.100,-0.061,-0.038,92.000
'0:08.990',-0.099,-0.059,-0.042,92.000
'0:09.000',-0.098,-0.057,-0.047,92.000
'0:09.010',-0.097,-0.055,-0.052,92.000
'0:09.020',-0.095,-0.052,-0.056,92.000
'0:09.030',-0.094,-0.050,-0.061,92.000
'0:09.040',-0.092,-0.048,-0.066,92.000
'0:09.050',-0.091,-0.046,-0.070,92.000
'0:09.060',-0.091,-0.043,-0.075,92.000
'0:09.070',-0.091,-0.041,-0.079,92.000
'0:09.080',-0.090,-0.038,-0.084,92.000
'0:09.090',-0.090,-0.035,-0.088,92.000
'0:09.100',-0.090,-0.033,-0.093,92.000
'0:09.110',-0.090,-0.029,-0.097,92.000
'0:09.120',-0.089,-0.026,-0.102,92.000
'0:09.130',-0.089,-0.022,-0.106,92.000
'0:09.140',-0.089,-0.019,-0.111,92.000
'0:09.150',-0.088,-0.016,-0.116,92.000
'0:09.160',-0.088,-0.011,-0.120,92.000
'0:09.170',-0.088,-0.007,-0.124,92.000
'0:09.180',-0.087,-0.003,-0.129,92.000
'0:09.190',-0.087,0.002,-0.133,92.000
'0:09.200',-0.087,0.006,-0.137,92.000
'0:09.210',-0.087,0.010,-0.142,92.000
'0:09.220',-0.087,0.015,-0.146,92.000
'0:09.230',-0.087,0.019,-0.150,92.000
'0:09.240',-0.087,0.024,-0.154,92.000
'0:09.250',-0.088,0.028,-0.159,92.000
'0:09.260',-0.088,0.034,-0.163,92.000
'0:09.270',-0.088,0.039,-0.167,92.000
'0:09.280',-0.088,0.045,-0.171,92.000
'0:09.290',-0.089,0.050,-0.176,92.000
'0:09.300',-0.089,0.056,-0.180,92.000
'0:09.310',-0.090,0.060,-0.184,92.000
'0:09.320',-0.090,0.064,-0.188,92.000
'0:09.330',-0.091,0.068,-0.192,92.000
'0:09.340',-0.092,0.073,-0.196,92.000
'0:09.350',-0.092,0.077,-0.200,92.000
'0:09.360',-0.092,0.078,-0.203,92.000
'0:09.370',-0.092,0.078,-0.207,92.000
'0:09.380',-0.092,0.079,-0.211,92.000
'0:09.390',-0.091,0.080,-0.214,92.000
'0:09.400',-0.091,0.081,-0.218,92.000
'0:09.410',-0.090,0.083,-0.222,92.000
'0:09.420',-0.089,0.085,-0.226,92.000
'0:09.430',-0.088,0.087,-0.230,92.000
'0:09.440',-0.088,0.090,-0.234,92.000
'0:09.450',-0.087,0.092,-0.238,92.000
'0:09.460',-0.085,0.095,-0.241,92.000
'0:09.470',-0.084,0.098,-0.245,92.000
'0:09.480',-0.083,0.100,-0.248,92.000
'0:09.490',-0.081,0.103,-0.252,92.000
'0:09.500',-0.080,0.106,-0.256,92.000
'0:09.510',-0.080,0.107,-0.259,92.000
'0:09.520',-0.080,0.108,-0.262,92.000
'0:09.530',-0.079,0.110,-0.265,92.000
'0:09.540',-0.079,0.111,-0.268,92.000
'0:09.550',-0.079,0.112,-0.271,92.000
'0:09.560',-0.079,0.113,-0.274,92.000
'0:09.570',-0.080,0.113,-0.276,92.000
'0:09.580',-0.081,0.114,-0.279,92.000
'0:09.590',-0.081,0.115,-0.281,92.000
'0:09.600',-0.082,0.116,-0.284,92.000
'0:09.610',-0.082,0.115,-0.286,92.000
'0:09.620',-0.082,0.115,-0.288,92.000
'0:09.630',-0.083,0.115,-0.290,92.000
'0:09.640',-0.083,0.115,-0.292,92.000
'0:09.650',-0.083,0.115,-0.294,92.000
'0:09.660',-0.083,0.114,-0.296,92.000
'0:09.670',-0.083,0.113,-0.297,92.000
'0:09.680',-0.083,0.113,-0.298,92.000
'0:09.690',-0.082,0.112,-0.299,92.000
'0:09.700',-0.082,0.111,-0.300,92.000
'0:09.710',-0.083,0.108,-0.300,92.000
'0:09.720',-0.083,0.106,-0.299,92.000
'0:09.730',-0.084,0.104,-0.299,92.000
'0:09.740',-0.084,0.101,-0.298,92.000
'0:09.750',-0.085,0.099,-0.297,92.000
'0:09.760',-0.084,0.094,-0.294,92.000
'0:09.770',-0.084,0.090,-0.291,92.000
'0:09.780',-0.084,0.085,-0.288,92.000
'0:09.790',-0.083,0.081,-0.286,92.000
'0:09.800',-0.083,0.076,-0.283,92.000
'0:09.810',-0.083,0.071,-0.278,92.000
'0:09.820',-0.083,0.066,-0.273,92.000
'0:09.830',-0.083,0.061,-0.268,92.000
'0:09.840',-0.083,0.056,-0.263,92.000
'0:09.850',-0.083,0.051,-0.258,92.000
'0:09.860',-0.084,0.047,-0.252,92.000
'0:09.870',-0.085,0.043,-0.246,92.000
'0:09.880',-0.086,0.038,-0.240,92.000
'0:09.890',-0.088,0.034,-0.234,92.000
'0:09.900',-0.089,0.030,-0.228,92.000
'0:09.910',-0.089,0.025,-0.221,92.000
'0:09.920',-0.090,0.019,-0.214,92.000
'0:09.930',-0.090,0.014,-0.206,92.000
'0:09.940',-0.091,0.009,-0.199,92.000
'0:09.950',-0.091,0.004,-0.192,92.000
'0:09.960',-0.093,-0.002,-0.184,92.000
'0:09.970',-0.096,-0.007,-0.176,92.000
'0:09.980',-0.098,-0.013,-0.169,92.000
'0:09.990',-0.101,-0.018,-0.161,92.000
'0:10.000',-0.103,-0.024,-0.153,92.000
'0:10.010',-0.106,-0.026,-0.145,92.000
'0:10.020',-0.108,-0.029,-0.137,92.000
'0:10.030',-0.110,-0.032,-0.129,92.000
'0:10.040',-0.112,-0.035,-0.121,92.000
'0:10.050',-0.114,-0.038,-0.113,92.000
'0:10.060',-0.115,-0.041,-0.105,92.000
'0:10.070',-0.115,-0.043,-0.097,92.000
'0:10.080',-0.115,-0.046,-0.089,92.000
'0:10.090',-0.116,-0.049,-0.081,92.000
'0:10.100',-0.116,-0.052,-0.073,92.000
'0:10.110',-0.117,-0.057,-0.065,92.000
'0:10.120',-0.118,-0.061,-0.057,92.000
'0:10.130',-0.119,-0.065,-0.050,92.000
'0:10.140',-0.120,-0.069,-0.042,92.000
'0:10.150',-0.121,-0.073,-0.034,92.000
'0:10.160',-0.122,-0.076,-0.027,92.000
'0:10.170',-0.123,-0.080,-0.020,92.000
'0:10.180',-0.124,-0.083,-0.012,92.000
'0:10.190',-0.125,-0.087,-0.005,92.000
'0:10.200',-0.126,-0.090,0.002,92.000
'0:10.210',-0.126,-0.092,0.009,92.000
'0:10.220',-0.126,-0.093,0.016,92.000
'0:10.230',-0.126,-0.094,0.022,92.000
'0:10.240',-0.126,-0.095,0.029,92.000
'0:10.250',-0.126,-0.096,0.036,92.000
'0:10.260',-0.126,-0.097,0.042,92.000
'0:10.270',-0.126,-0.098,0.049,92.000
'0:10.280',-0.126,-0.099,0.055,92.000
'0:10.290',-0.126,-0.100,0.062,92.000
'0:10.300',-0.126,-0.101,0.068,92.000
'0:10.310',-0.127,-0.103,0.074,92.000
'0:10.320',-0.128,-0.105,0.080,92.000
'0:10.330',-0.129,-0.107,0.086,92.000
'0:10.340',-0.130,-0.109,0.092,92.000
'0:10.350',-0.131,-0.111,0.098,92.000
'0:10.360',-0.132,-0.112,0.103,92.000
'0:10.370',-0.132,-0.114,0.109,92.000
'0:10.380',-0.133,-0.115,0.114,92.000
'0:10.390',-0.133,-0.116,0.120,92.000
'0:10.400',-0.134,-0.118,0.125,92.000
'0:10.410',-0.134,-0.119,0.130,92.000
'0:10.420',-0.134,-0.121,0.135,92.000
'0:10.430',-0.135,-0.122,0.140,92.000
'0:10.440',-0.135,-0.124,0.145,92.000
'0:10.450',-0.135,-0.125,0.151,92.000
'0:10.460',-0.135,-0.126,0.155,92.000
'0:10.470',-0.135,-0.127,0.160,92.000
'0:10.480',-0.135,-0.128,0.165,92.000
'0:10.490',-0.135,-0.129,0.169,92.000
'0:10.500',-0.135,-0.130,0.174,92.000
'0:10.510',-0.135,-0.131,0.178,92.000
'0:10.520',-0.135,-0.132,0.182,92.000
'0:10.530',-0.135,-0.134,0.187,92.000
'0:10.540',-0.135,-0.135,0.191,92.000
'0:10.550',-0.135,-0.137,0.195,92.000
'0:10.560',-0.136,-0.138,0.199,92.000
'0:10.570',-0.136,-0.140,0.203,92.000
'0:10.580',-0.137,-0.141,0.206,92.000
'0:10.590',-0.138,-0.142,0.210,92.000
'0:10.600',-0.138,-0.144,0.214,92.000
'0:10.610',-0.139,-0.146,0.217,92.000
'0:10.620',-0.139,-0.149,0.221,92.000
'0:10.630',-0.139,-0.151,0.225,92.000
'0:10.640',-0.139,-0.154,0.228,92.000
'0:10.650',-0.140,-0.156,0.232,92.000
'0:10.660',-0.139,-0.161,0.235,92.000
'0:10.670',-0.139,-0.166,0.238,92.000
'0:10.680',-0.139,-0.171,0.241,92.000
'0:10.690',-0.139,-0.175,0.244,92.000
'0:10.700',-0.138,-0.180,0.247,92.000
'0:10.710',-0.139,-0.184,0.250,92.000
'0:10.720',-0.140,-0.188,0.253,92.000
'0:10.730',-0.141,-0.192,0.256,92.000
'0:10.740',-0.142,-0.196,0.259,92.000
'0:10.750',-0.142,-0.200,0.262,92.000
'0:10.760',-0.144,-0.202,0.264,92.000
'0:10.770',-0.146,-0.205,0.267,92.000
'0:10.780',-0.148,-0.207,0.270,92.000
'0:10.790',-0.150,-0.209,0.273,92.000
'0:10.800',-0.151,-0.212,0.275,92.000
'0:10.810',-0.152,-0.213,0.278,92.000
'0:10.820',-0.153,-0.215,0.280,92.000
'0:10.830',-0.153,-0.216,0.282,92.000
'0:10.840',-0.154,-0.218,0.284,92.000
'0:10.850',-0.155,-0.219,0.286,92.000
'0:10.860',-0.154,-0.225,0.287,92.000
'0:10.870',-0.153,-0.232,0.289,92.000
'0:10.880',-0.153,-0.238,0.291,92.000
'0:10.890',-0.152,-0.244,0.292,92.000
'0:10.900',-0.151,-0.251,0.294,92.000
'0:10.910',-0.151,-0.256,0.295,92.000
'0:10.920',-0.152,-0.262,0.296,92.000
'0:10.930',-0.152,-0.267,0.298,92.000
'0:10.940',-0.153,-0.273,0.299,92.000
'0:10.950',-0.153,-0.278,0.301,93.000
'0:10.960',-0.153,-0.278,0.302,93.000
'0:10.970',-0.153,-0.277,0.303,93.000
'0:10.980',-0.153,-0.277,0.304,93.000
'0:10.990',-0.153,-0.276,0.305,93.000
'0:11.000',-0.153,-0.276,0.306,93.000
'0:11.010',-0.152,-0.278,0.306,93.000
'0:11.020',-0.150,-0.280,0.307,93.000
'0:11.030',-0.149,-0.281,0.308,93.000
'0:11.040',-0.148,-0.283,0.309,93.000
'0:11.050',-0.147,-0.285,0.309,93.000
'0:11.060',-0.148,-0.286,0.310,93.000
'0:11.070',-0.150,-0.286,0.311,93.000
'0:11.080',-0.151,-0.287,0.312,93.000
'0:11.090',-0.152,-0.288,0.313,93.000
'0:11.100',-0.154,-0.288,0.314,93.000
'0:11.110',-0.155,-0.289,0.315,93.000
'0:11.120',-0.156,-0.290,0.315,93.000
'0:11.130',-0.157,-0.291,0.316,93.000
'0:11.140',-0.159,-0.292,0.317,93.000
'0:11.150',-0.160,-0.293,0.318,93.000
'0:11.160',-0.160,-0.294,0.319,93.000
'0:11.170',-0.159,-0.295,0.320,93.000
'0:11.180',-0.159,-0.296,0.321,93.000
'0:11.190',-0.159,-0.297,0.322,93.000
'0:11.200',-0.159,-0.298,0.323,93.000
'0:11.210',-0.158,-0.296,0.323,93.000
'0:11.220',-0.158,-0.295,0.324,93.000
'0:11.230',-0.157,-0.293,0.324,93.000
'0:11.240',-0.157,-0.291,0.325,93.000
'0:11.250',-0.157,-0.290,0.326,93.000
'0:11.260',-0.157,-0.289,0.326,93.000
'0:11.270',-0.157,-0.289,0.327,93.000
'0:11.280',-0.158,-0.289,0.327,93.000
'0:11.290',-0.158,-0.288,0.328,93.000
'0:11.300',-0.159,-0.288,0.328,93.000
'0:11.310',-0.159,-0.286,0.329,93.000
'0:11.320',-0.159,-0.285,0.330,93.000
'0:11.330',-0.159,-0.284,0.330,93.000
'0:11.340',-0.159,-0.282,0.331,93.000
'0:11.350',-0.159,-0.281,0.332,93.000
'0:11.360',-0.160,-0.280,0.332,93.000
'0:11.370',-0.160,-0.279,0.333,93.000
'0:11.380',-0.161,-0.277,0.333,93.000
'0:11.390',-0.161,-0.276,0.334,93.000
'0:11.400',-0.162,-0.275,0.334,93.000
'0:11.410',-0.162,-0.273,0.334,93.000
'0:11.420',-0.162,-0.271,0.334,93.000
'0:11.430',-0.163,-0.269,0.334,93.000
'0:11.440',-0.163,-0.267,0.333,93.000
'0:11.450',-0.164,-0.265,0.333,93.000
'0:11.460',-0.164,-0.261,0.333,93.000
'0:11.470',-0.164,-0.258,0.332,93.000
'0:11.480',-0.164,-0.254,0.332,93.000
'0:11.490',-0.165,-0.251,0.331,93.000
'0:11.500',-0.165,-0.247,0.331,93.000
'0:11.510',-0.167,-0.242,0.329,93.000
'0:11.520',-0.168,-0.238,0.327,93.000
'0:11.530',-0.169,-0.233,0.325,93.000
'0:11.540',-0.171,-0.228,0.323,93.000
'0:11.550',-0.172,-0.223,0.322,93.000
'0:11.560',-0.173,-0.219,0.318,93.000
'0:11.570',-0.174,-0.215,0.314,93.000
'0:11.580',-0.174,-0.211,0.309,93.000
'0:11.590',-0.175,-0.207,0.305,93.000
'0:11.600',-0.176,-0.203,0.301,93.000
'0:11.610',-0.174,-0.204,0.296,93.000
'0:11.620',-0.172,-0.205,0.290,93.000
'0:11.630',-0.170,-0.206,0.284,93.000
'0:11.640',-0.169,-0.207,0.279,93.000
'0:11.650',-0.167,-0.208,0.273,93.000
'0:11.660',-0.166,-0.206,0.266,93.000
'0:11.670',-0.165,-0.204,0.260,93.000
'0:11.680',-0.164,-0.203,0.253,93.000
'0:11.690',-0.163,-0.201,0.246,93.000
'0:11.700',-0.162,-0.199,0.240,93.000
'0:11.710',-0.161,-0.194,0.233,93.000
'0:11.720',-0.160,-0.188,0.226,93.000
'0:11.730',-0.160,-0.183,0.219,93.000
'0:11.740',-0.159,-0.177,0.212,93.000
'0:11.750',-0.158,-0.172,0.206,93.000
'0:11.760',-0.157,-0.170,0.199,93.000
'0:11.770',-0.156,-0.167,0.192,93.000
'0:11.780',-0.154,-0.165,0.185,93.000
'0:11.790',-0.153,-0.163,0.179,93.000
'0:11.800',-0.152,-0.160,0.172,93.000
'0:11.810',-0.151,-0.159,0.165,93.000
'0:11.820',-0.149,-0.157,0.159,93.000
'0:11.830',-0.148,-0.155,0.152,93.000
'0:11.840',-0.147,-0.154,0.146,93.000
'0:11.850',-0.146,-0.152,0.139,93.000
'0:11.860',-0.145,-0.150,0.133,93.000
'0:11.870',-0.143,-0.148,0.127,93.000
'0:11.880',-0.141,-0.146,0.121,93.000
'0:11.890',-0.140,-0.143,0.115,93.000
'0:11.900',-0.138,-0.141,0.109,93.000
'0:11.910',-0.138,-0.140,0.103,93.000
'0:11.920',-0.137,-0.138,0.097,93.000
'0:11.930',-0.137,-0.136,0.091,93.000
'0:11.940',-0.136,-0.135,0.085,93.000
'0:11.950',-0.135,-0.133,0.079,94.000
'0:11.960',-0.134,-0.131,0.074,94.000
'0:11.970',-0.133,-0.129,0.068,94.000
'0:11.980',-0.132,-0.126,0.062,94.000
'0:11.990',-0.131,-0.124,0.057,94.000
'0:12.000',-0.130,-0.122,0.051,94.000
'0:12.010',-0.128,-0.119,0.046,94.000
'0:12.020',-0.127,-0.117,0.041,94.000
'0:12.030',-0.125,-0.115,0.035,94.000
'0:12.040',-0.124,-0.113,0.030,94.000
'0:12.050',-0.122,-0.111,0.025,94.000
'0:12.060',-0.122,-0.109,0.019,94.000
'0:12.070',-0.121,-0.107,0.014,94.000
'0:12.080',-0.120,-0.106,0.008,94.000
'0:12.090',-0.120,-0.104,0.003,94.000
'0:12.100',-0.119,-0.102,-0.002,94.000
'0:12.110',-0.118,-0.101,-0.007,94.000
'0:12.120',-0.117,-0.099,-0.013,94.000
'0:12.130',-0.116,-0.097,-0.018,94.000
'0:12.140',-0.115,-0.095,-0.023,94.000
'0:12.150',-0.114,-0.093,-0.029,94.000
'0:12.160',-0.112,-0.091,-0.034,94.000
'0:12.170',-0.111,-0.088,-0.039,94.000
'0:12.180',-0.110,-0.086,-0.045,94.000
'0:12.190',-0.109,-0.084,-0.050,94.000
'0:12.200',-0.108,-0.082,-0.055,94.000
'0:12.210',-0.108,-0.080,-0.061,94.000
'0:12.220',-0.108,-0.078,-0.066,94.000
'0:12.230',-0.107,-0.076,-0.071,94.000
'0:12.240',-0.107,-0.074,-0.077,94.000
'0:12.250',-0.107,-0.072,-0.082,94.000
'0:12.260',-0.106,-0.070,-0.087,94.000
'0:12.270',-0.106,-0.068,-0.092,94.000
'0:12.280',-0.106,-0.066,-0.097,94.000
'0:12.290',-0.105,-0.064,-0.103,94.000
'0:12.300',-0.105,-0.062,-0.108,94.000
'0:12.310',-0.104,-0.059,-0.113,94.000
'0:12.320',-0.104,-0.056,-0.118,94.000
'0:12.330',-0.103,-0.053,-0.123,94.000
'0:12.340',-0.103,-0.051,-0.128,94.000
'0:12.350',-0.103,-0.048,-0.133,94.000
'0:12.360',-0.102,-0.046,-0.138,94.000
'0:12.370',-0.102,-0.044,-0.143,94.000
'0:12.380',-0.102,-0.043,-0.148,94.000
'0:12.390',-0.102,-0.041,-0.153,94.000
'0:12.400',-0.102,-0.039,-0.159,94.000
'0:12.410',-0.101,-0.037,-0.164,94.000
'0:12.420',-0.100,-0.035,-0.169,94.000
'0:12.430',-0.100,-0.033,-0.173,94.000
'0:12.440',-0.099,-0.031,-0.178,94.000
'0:12.450',-0.098,-0.028,-0.183,94.000
'0:12.460',-0.098,-0.025,-0.188,94.000
'0:12.470',-0.098,-0.021,-0.193,94.000
'0:12.480',-0.098,-0.017,-0.198,94.000
'0:12.490',-0.097,-0.014,-0.202,94.000
'0:12.500',-0.097,-0.010,-0.207,94.000
'0:12.510',-0.096,-0.006,-0.211,94.000
'0:12.520',-0.095,-0.002,-0.216,94.000
'0:12.530',-0.094,0.002,-0.221,94.000
'0:12.540',-0.093,0.006,-0.225,94.000
'0:12.550',-0.092,0.010,-0.230,94.000
'0:12.560',-0.091,0.015,-0.234,94.000
'0:12.570',-0.090,0.019,-0.239,94.000
'0:12.580',-0.089,0.024,-0.243,94.000
'0:12.590',-0.088,0.028,-0.247,94.000
'0:12.600',-0.087,0.033,-0.252,94.000
'0:12.610',-0.087,0.038,-0.256,94.000
'0:12.620',-0.087,0.043,-0.260,94.000
'0:12.630',-0.086,0.048,-0.264,94.000
'0:12.640',-0.086,0.053,-0.268,94.000
'0:12.650',-0.086,0.058,-0.273,94.000
'0:12.660',-0.086,0.062,-0.276,94.000
'0:12.670',-0.086,0.067,-0.280,94.000
'0:12.680',-0.086,0.072,-0.284,94.000
'0:12.690',-0.086,0.077,-0.288,94.000
'0:12.700',-0.086,0.082,-0.292,94.000
'0:12.710',-0.086,0.086,-0.296,94.000
'0:12.720',-0.085,0.089,-0.299,94.000
'0:12.730',-0.085,0.092,-0.303,94.000
'0:12.740',-0.085,0.096,-0.307,94.000
'0:12.750',-0.084,0.100,-0.311,94.000
'0:12.760',-0.084,0.103,-0.314,94.000
'0:12.770',-0.083,0.107,-0.318,94.000
'0:12.780',-0.082,0.110,-0.322,94.000
'0:12.790',-0.081,0.114,-0.325,94.000
'0:12.800',-0.080,0.117,-0.329,94.000
'0:12.810',-0.079,0.120,-0.333,94.000
'0:12.820',-0.078,0.123,-0.336,94.000
'0:12.830',-0.077,0.126,-0.339,94.000
'0:12.840',-0.076,0.129,-0.343,94.000
'0:12.850',-0.075,0.132,-0.346,94.000
'0:12.860',-0.075,0.134,-0.349,94.000
'0:12.870',-0.074,0.136,-0.353,94.000
'0:12.880',-0.074,0.138,-0.356,94.000
'0:12.890',-0.073,0.140,-0.359,94.000
'0:12.900',-0.073,0.142,-0.362,94.000
'0:12.910',-0.072,0.145,-0.365,94.000
'0:12.920',-0.072,0.147,-0.368,94.000
'0:12.930',-0.071,0.150,-0.371,94.000
'0:12.940',-0.071,0.153,-0.374,94.000
'0:12.950',-0.070,0.156,-0.378,94.000
'0:12.960',-0.070,0.157,-0.380,94.000
'0:12.970',-0.070,0.157,-0.383,94.000
'0:12.980',-0.070,0.158,-0.385,94.000
'0:12.990',-0.071,0.158,-0.388,94.000
'0:13.000',-0.071,0.158,-0.390,94.000
'0:13.010',-0.071,0.158,-0.392,94.000
'0:13.020',-0.072,0.158,-0.394,94.000
'0:13.030',-0.072,0.157,-0.396,94.000
'0:13.040',-0.073,0.157,-0.398,94.000
'0:13.050',-0.073,0.157,-0.400,94.000
'0:13.060',-0.073,0.157,-0.402,94.000
'0:13.070',-0.073,0.157,-0.403,94.000
'0:13.080',-0.072,0.157,-0.405,94.000
'0:13.090',-0.072,0.157,-0.406,94.000
'0:13.100',-0.072,0.157,-0.407,94.000
'0:13.110',-0.072,0.155,-0.408,94.000
'0:13.120',-0.071,0.152,-0.410,94.000
'0:13.130',-0.071,0.150,-0.411,94.000
'0:13.140',-0.071,0.148,-0.412,94.000
'0:13.150',-0.070,0.145,-0.413,94.000
'0:13.160',-0.071,0.141,-0.413,94.000
'0:13.170',-0.071,0.137,-0.413,94.000
'0:13.180',-0.071,0.132,-0.413,94.000
'0:13.190',-0.071,0.128,-0.413,94.000
'0:13.200',-0.072,0.123,-0.413,94.000
'0:13.210',-0.072,0.120,-0.411,94.000
'0:13.220',-0.072,0.117,-0.409,94.000
'0:13.230',-0.073,0.114,-0.407,94.000
'0:13.240',-0.073,0.111,-0.405,94.000
'0:13.250',-0.074,0.108,-0.403,94.000
'0:13.260',-0.074,0.104,-0.398,94.000
'0:13.270',-0.074,0.100,-0.394,94.000
'0:13.280',-0.074,0.096,-0.390,94.000
'0:13.290',-0.074,0.091,-0.386,94.000
'0:13.300',-0.074,0.087,-0.382,94.000
'0:13.310',-0.074,0.082,-0.376,94.000
'0:13.320',-0.074,0.076,-0.370,94.000
'0:13.330',-0.075,0.070,-0.364,94.000
'0:13.340',-0.075,0.064,-0.357,94.000
'0:13.350',-0.075,0.058,-0.351,94.000
'0:13.360',-0.076,0.053,-0.344,94.000
'0:13.370',-0.076,0.049,-0.337,94.000
'0:13.380',-0.077,0.044,-0.329,94.000
'0:13.390',-0.078,0.039,-0.322,94.000
'0:13.400',-0.078,0.034,-0.315,94.000
'0:13.410',-0.079,0.029,-0.307,94.000
'0:13.420',-0.081,0.024,-0.299,94.000
'0:13.430',-0.082,0.020,-0.291,94.000
'0:13.440',-0.083,0.015,-0.283,94.000
'0:13.450',-0.084,0.010,-0.275,94.000
'0:13.460',-0.085,0.006,-0.266,94.000
'0:13.470',-0.086,0.003,-0.258,94.000
'0:13.480',-0.087,-0.001,-0.249,94.000
'0:13.490',-0.088,-0.004,-0.241,94.000
'0:13.500',-0.089,-0.008,-0.233,94.000
'0:13.510',-0.090,-0.012,-0.224,94.000
'0:13.520',-0.090,-0.016,-0.216,94.000
'0:13.530',-0.090,-0.019,-0.207,94.000
'0:13.540',-0.091,-0.023,-0.199,94.000
'0:13.550',-0.091,-0.027,-0.190,94.000
'0:13.560',-0.092,-0.030,-0.182,94.000
'0:13.570',-0.093,-0.034,-0.173,94.000
'0:13.580',-0.094,-0.037,-0.165,94.000
'0:13.590',-0.094,-0.040,-0.157,94.000
'0:13.600',-0.095,-0.044,-0.148,94.000
'0:13.610',-0.097,-0.046,-0.140,94.000
'0:13.620',-0.098,-0.049,-0.132,94.000
'0:13.630',-0.099,-0.052,-0.123,94.000
'0:13.640',-0.100,-0.054,-0.115,94.000
'0:13.650',-0.102,-0.057,-0.107,94.000
'0:13.660',-0.102,-0.059,-0.099,94.000
'0:13.670',-0.103,-0.062,-0.091,94.000
'0:13.680',-0.103,-0.064,-0.083,94.000
'0:13.690',-0.104,-0.066,-0.075,94.000
'0:13.700',-0.104,-0.069,-0.067,94.000
'0:13.710',-0.105,-0.071,-0.059,94.000
'0:13.720',-0.106,-0.073,-0.052,94.000
'0:13.730',-0.107,-0.075,-0.044,94.000
'0:13.740',-0.108,-0.077,-0.036,94.000
'0:13.750',-0.109,-0.079,-0.029,94.000
'0:13.760',-0.111,-0.082,-0.022,94.000
'0:13.770',-0.113,-0.084,-0.015,94.000
'0:13.780',-0.116,-0.087,-0.007,94.000
'0:13.790',-0.118,-0.090,-0.000,94.000
'0:13.800',-0.120,-0.093,0.007,94.000
'0:13.810',-0.122,-0.095,0.014,94.000
'0:13.820',-0.123,-0.097,0.020,94.000
'0:13.830',-0.125,-0.099,0.027,94.000
'0:13.840',-0.127,-0.101,0.033,94.000
'0:13.850',-0.128,-0.103,0.040,94.000
'0:13.860',-0.128,-0.105,0.046,94.000
'0:13.870',-0.128,-0.106,0.052,94.000
'0:13.880',-0.128,-0.108,0.058,94.000
'0:13.890',-0.128,-0.109,0.064,94.000
'0:13.900',-0.128,-0.111,0.069,94.000
'0:13.910',-0.129,-0.113,0.075,94.000
'0:13.920',-0.129,-0.115,0.080,94.000
'0:13.930',-0.129,-0.117,0.085,94.000
'0:13.940',-0.130,-0.118,0.090,94.000
'0:13.950',-0.130,-0.120,0.096,94.000
'0:13.960',-0.130,-0.122,0.100,94.000
'0:13.970',-0.131,-0.123,0.105,94.000
'0:13.980',-0.131,-0.125,0.110,94.000
'0:13.990',-0.131,-0.126,0.115,94.000
'0:14.000',-0.132,-0.128,0.119,94.000
'0:14.010',-0.132,-0.129,0.124,94.000
'0:14.020',-0.132,-0.130,0.128,94.000
'0:14.030',-0.132,-0.130,0.132,94.000
'0:14.040',-0.132,-0.131,0.137,94.000
'0:14.050',-0.132,-0.132,0.141,94.000
'0:14.060',-0.133,-0.133,0.145,94.000
'0:14.070',-0.133,-0.134,0.149,94.000
'0:14.080',-0.133,-0.134,0.153,94.000
'0:14.090',-0.133,-0.135,0.157,94.000
'0:14.100',-0.134,-0.136,0.161,94.000
'0:14.110',-0.134,-0.138,0.165,94.000
'0:14.120',-0.134,-0.140,0.169,94.000
'0:14.130',-0.135,-0.142,0.173,94.000
'0:14.140',-0.135,-0.144,0.177,94.000
'0:14.150',-0.136,-0.146,0.181,94.000
'0:14.160',-0.137,-0.147,0.184,94.000
'0:14.170',-0.138,-0.148,0.188,94.000
'0:14.180',-0.139,-0.149,0.191,94.000
'0:14.190',-0.140,-0.150,0.195,94.000
'0:14.200',-0.141,-0.151,0.199,94.000
'0:14.210',-0.140,-0.155,0.202,94.000
'0:14.220',-0.140,-0.159,0.205,94.000
'0:14.230',-0.140,-0.162,0.208,94.000
'0:14.240',-0.140,-0.166,0.212,94.000
'0:14.250',-0.140,-0.170,0.215,94.000
'0:14.260',-0.140,-0.173,0.218,94.000
'0:14.270',-0.139,-0.176,0.221,94.000
'0:14.280',-0.139,-0.180,0.224,94.000
'0:14.290',-0.138,-0.183,0.227,94.000
'0:14.300',-0.138,-0.186,0.230,94.000
'0:14.310',-0.137,-0.188,0.233,94.000
'0:14.320',-0.137,-0.190,0.235,94.000
'0:14.330',-0.137,-0.191,0.238,94.000
'0:14.340',-0.136,-0.193,0.241,94.000
'0:14.350',-0.136,-0.195,0.243,94.000
'0:14.360',-0.136,-0.200,0.246,94.000
'0:14.370',-0.137,-0.205,0.248,94.000
'0:14.380',-0.137,-0.210,0.251,94.000
'0:14.390',-0.137,-0.215,0.253,94.000
'0:14.400',-0.138,-0.220,0.256,94.000
'0:14.410',-0.139,-0.222,0.257,94.000
'0:14.420',-0.140,-0.224,0.259,94.000
'0:14.430',-0.140,-0.226,0.261,94.000
'0:14.440',-0.141,-0.228,0.263,94.000
'0:14.450',-0.142,-0.230,0.265,94.000
'0:14.460',-0.142,-0.231,0.267,94.000
'0:14.470',-0.142,-0.232,0.269,94.000
'0:14.480',-0.142,-0.232,0.271,94.000
'0:14.490',-0.142,-0.233,0.273,94.000
'0:14.500',-0.142,-0.233,0.275,94.000
'0:14.510',-0.143,-0.235,0.277,94.000
'0:14.520',-0.144,-0.237,0.278,94.000
'0:14.530',-0.145,-0.238,0.280,94.000
'0:14.540',-0.147,-0.240,0.282,94.000
'0:14.550',-0.148,-0.241,0.283,94.000
'0:14.560',-0.149,-0.241,0.284,94.000
'0:14.570',-0.150,-0.240,0.286,94.000
'0:14.580',-0.151,-0.240,0.287,94.000
'0:14.590',-0.152,-0.239,0.288,94.000
'0:14.600',-0.153,-0.239,0.289,94.000
'0:14.610',-0.153,-0.240,0.291,94.000
'0:14.620',-0.153,-0.241,0.292,94.000
'0:14.630',-0.153,-0.242,0.293,94.000
'0:14.640',-0.154,-0.242,0.295,94.000
'0:14.650',-0.154,-0.243,0.296,94.000
'0:14.660',-0.154,-0.250,0.297,94.000
'0:14.670',-0.154,-0.256,0.298,94.000
'0:14.680',-0.153,-0.263,0.299,94.000
'0:14.690',-0.153,-0.269,0.299,94.000
'0:14.700',-0.153,-0.276,0.300,94.000
'0:14.710',-0.152,-0.280,0.301,94.000
'0:14.720',-0.152,-0.284,0.302,94.000
'0:14.730',-0.151,-0.289,0.303,94.000
'0:14.740',-0.150,-0.293,0.303,94.000
'0:14.750',-0.150,-0.297,0.304,94.000
'0:14.760',-0.149,-0.295,0.305,94.000
'0:14.770',-0.149,-0.292,0.305,94.000
'0:14.780',-0.149,-0.290,0.306,94.000
'0:14.790',-0.149,-0.288,0.306,94.000
'0:14.800',-0.148,-0.285,0.307,94.000
'0:14.810',-0.148,-0.286,0.307,94.000
'0:14.820',-0.148,-0.287,0.308,94.000
'0:14.830',-0.149,-0.288,0.308,94.000
'0:14.840',-0.149,-0.289,0.309,94.000
'0:14.850',-0.149,-0.290,0.309,94.000
'0:14.860',-0.149,-0.292,0.310,94.000
'0:14.870',-0.149,-0.295,0.311,94.000
'0:14.880',-0.149,-0.297,0.311,94.000
'0:14.890',-0.150,-0.300,0.312,94.000
'0:14.900',-0.150,-0.303,0.313,94.000
'0:14.910',-0.150,-0.300,0.313,94.000
'0:14.920',-0.149,-0.298,0.314,94.000
'0:14.930',-0.149,-0.296,0.315,94.000
'0:14.940',-0.148,-0.294,0.315,94.000
'0:14.950',-0.148,-0.291,0.316,94.000
'0:14.960',-0.148,-0.292,0.317,94.000
'0:14.970',-0.148,-0.293,0.317,94.000
'0:14.980',-0.149,-0.293,0.318,94.000
'0:14.990',-0.149,-0.294,0.319,94.000
'0:15.000',-0.149,-0.294,0.319,94.000
'0:15.010',-0.149,-0.297,0.320,94.000
'0:15.020',-0.149,-0.301,0.321,94.000
'0:15.030',-0.149,-0.304,0.322,94.000
'0:15.040',-0.149,-0.307,0.322,94.000
'0:15.050',-0.148,-0.310,0.323,94.000
'0:15.060',-0.148,-0.310,0.324,94.000
'0:15.070',-0.148,-0.309,0.325,94.000
'0:15.080',-0.148,-0.309,0.325,94.000
'0:15.090',-0.148,-0.309,0.326,94.000
'0:15.100',-0.149,-0.309,0.327,94.000
'0:15.110',-0.149,-0.307,0.327,94.000
'0:15.120',-0.149,-0.306,0.328,94.000
'0:15.130',-0.150,-0.304,0.328,94.000
'0:15.140',-0.150,-0.302,0.329,94.000
'0:15.150',-0.150,-0.301,0.329,94.000
'0:15.160',-0.150,-0.299,0.330,94.000
'0:15.170',-0.150,-0.297,0.330,94.000
'0:15.180',-0.151,-0.296,0.331,94.000
'0:15.190',-0.151,-0.294,0.331,94.000
'0:15.200',-0.151,-0.292,0.331,94.000
'0:15.210',-0.151,-0.292,0.332,94.000
'0:15.220',-0.151,-0.292,0.332,94.000
'0:15.230',-0.151,-0.292,0.332,94.000
'0:15.240',-0.151,-0.292,0.332,94.000
'0:15.250',-0.151,-0.291,0.332,94.000
'0:15.260',-0.151,-0.290,0.331,94.000
'0:15.270',-0.151,-0.288,0.330,94.000
'0:15.280',-0.151,-0.286,0.330,94.000
'0:15.290',-0.151,-0.284,0.329,94.000
'0:15.300',-0.151,-0.283,0.329,94.000
'0:15.310',-0.152,-0.277,0.327,94.000
'0:15.320',-0.152,-0.272,0.325,94.000
'0:15.330',-0.153,-0.267,0.323,94.000
'0:15.340',-0.154,-0.261,0.321,94.000
'0:15.350',-0.155,-0.256,0.319,94.000
'0:15.360',-0.155,-0.251,0.315,94.000
'0:15.370',-0.154,-0.246,0.311,94.000
'0:15.380',-0.154,-0.242,0.307,94.000
'0:15.390',-0.153,-0.237,0.304,94.000
'0:15.400',-0.153,-0.232,0.300,94.000
'0:15.410',-0.152,-0.233,0.295,94.000
'0:15.420',-0.152,-0.233,0.289,94.000
'0:15.430',-0.151,-0.233,0.284,94.000
'0:15.440',-0.151,-0.234,0.279,94.000
'0:15.450',-0.150,-0.234,0.274,94.000
'0:15.460',-0.149,-0.236,0.268,94.000
'0:15.470',-0.148,-0.237,0.262,94.000
'0:15.480',-0.147,-0.239,0.256,94.000
'0:15.490',-0.146,-0.240,0.250,94.000
'0:15.500',-0.146,-0.242,0.243,94.000
'0:15.510',-0.144,-0.237,0.237,94.000
'0:15.520',-0.143,-0.232,0.231,94.000
'0:15.530',-0.141,-0.228,0.225,94.000
'0:15.540',-0.140,-0.223,0.219,94.000
'0:15.550',-0.138,-0.218,0.213,94.000
'0:15.560',-0.138,-0.215,0.207,94.000
'0:15.570',-0.138,-0.211,0.201,94.000
'0:15.580',-0.137,-0.207,0.196,94.000
'0:15.590',-0.137,-0.204,0.190,94.000
'0:15.600',-0.137,-0.200,0.184,94.000
'0:15.610',-0.135,-0.200,0.178,94.000
'0:15.620',-0.134,-0.199,0.173,94.000
'0:15.630',-0.132,-0.198,0.168,94.000
'0:15.640',-0.130,-0.198,0.162,94.000
'0:15.650',-0.129,-0.197,0.157,94.000
'0:15.660',-0.127,-0.191,0.152,94.000
'0:15.670',-0.126,-0.184,0.146,94.000
'0:15.680',-0.125,-0.177,0.141,94.000
'0:15.690',-0.123,-0.170,0.136,94.000
'0:15.700',-0.122,-0.163,0.131,94.000
'0:15.710',-0.121,-0.157,0.127,94.000
'0:15.720',-0.121,-0.151,0.122,94.000
'0:15.730',-0.120,-0.145,0.117,94.000
'0:15.740',-0.119,-0.139,0.112,94.000
'0:15.750',-0.118,-0.133,0.108,94.000
'0:15.760',-0.117,-0.131,0.103,94.000
'0:15.770',-0.116,-0.130,0.099,94.000
'0:15.780',-0.115,-0.128,0.094,94.000
'0:15.790',-0.114,-0.126,0.089,94.000
'0:15.800',-0.113,-0.125,0.085,94.000
'0:15.810',-0.111,-0.123,0.080,94.000
'0:15.820',-0.110,-0.121,0.076,94.000
'0:15.830',-0.109,-0.119,0.071,94.000
'0:15.840',-0.107,-0.117,0.067,94.000
'0:15.850',-0.106,-0.116,0.063,94.000
'0:15.860',-0.104,-0.114,0.058,94.000
'0:15.870',-0.103,-0.112,0.054,94.000
'0:15.880',-0.101,-0.110,0.049,94.000
'0:15.890',-0.100,-0.108,0.045,94.000
'0:15.900',-0.098,-0.106,0.041,94.000
'0:15.910',-0.097,-0.104,0.036,94.000
'0:15.920',-0.097,-0.102,0.032,94.000
'0:15.930',-0.096,-0.100,0.027,94.000
'0:15.940',-0.095,-0.098,0.023,94.000
'0:15.950',-0.094,-0.096,0.018,94.000
'0:15.960',-0.093,-0.094,0.014,94.000
'0:15.970',-0.093,-0.092,0.009,94.000
'0:15.980',-0.092,-0.091,0.005,94.000
'0:15.990',-0.091,-0.089,0.001,94.000
'0:16.000',-0.091,-0.087,-0.004,94.000
'0:16.010',-0.090,-0.086,-0.008,94.000
'0:16.020',-0.090,-0.085,-0.013,94.000
'0:16.030',-0.090,-0.084,-0.017,94.000
'0:16.040',-0.089,-0.082,-0.021,94.000
'0:16.050',-0.089,-0.081,-0.026,94.000
'0:16.060',-0.089,-0.080,-0.030,94.000
'0:16.070',-0.088,-0.079,-0.034,94.000
'0:16.080',-0.088,-0.077,-0.038,94.000
'0:16.090',-0.088,-0.076,-0.043,94.000
'0:16.100',-0.087,-0.075,-0.047,94.000
'0:16.110',-0.087,-0.073,-0.051,94.000
'0:16.120',-0.086,-0.071,-0.056,94.000
'0:16.130',-0.085,-0.070,-0.060,94.000
'0:16.140',-0.085,-0.068,-0.065,94.000
'0:16.150',-0.084,-0.067,-0.069,94.000
'0:16.160',-0.084,-0.066,-0.073,94.000
'0:16.170',-0.083,-0.065,-0.078,94.000
'0:16.180',-0.083,-0.064,-0.083,94.000
'0:16.190',-0.082,-0.063,-0.087,94.000
'0:16.200',-0.082,-0.062,-0.092,94.000
'0:16.210',-0.081,-0.061,-0.096,94.000
'0:16.220',-0.079,-0.059,-0.100,94.000
'0:16.230',-0.078,-0.058,-0.105,94.000
'0:16.240',-0.077,-0.057,-0.109,94.000
'0:16.250',-0.076,-0.055,-0.114,94.000
'0:16.260',-0.075,-0.053,-0.118,94.000
'0:16.270',-0.075,-0.051,-0.123,94.000
'0:16.280',-0.074,-0.049,-0.127,94.000
'0:16.290',-0.073,-0.047,-0.131,94.000
'0:16.300',-0.072,-0.045,-0.136,94.000
'0:16.310',-0.072,-0.044,-0.140,94.000
'0:16.320',-0.072,-0.042,-0.144,94.000
'0:16.330',-0.072,-0.041,-0.149,94.000
'0:16.340',-0.072,-0.039,-0.153,94.000
'0:16.350',-0.071,-0.038,-0.157,94.000
'0:16.360',-0.070,-0.035,-0.161,94.000
'0:16.370',-0.069,-0.033,-0.165,94.000
'0:16.380',-0.068,-0.031,-0.169,94.000
'0:16.390',-0.067,-0.029,-0.173,94.000
'0:16.400',-0.066,-0.027,-0.178,94.000
'0:16.410',-0.064,-0.025,-0.181,94.000
'0:16.420',-0.063,-0.023,-0.185,94.000
'0:16.430',-0.062,-0.021,-0.190,94.000
'0:16.440',-0.061,-0.018,-0.194,94.000
'0:16.450',-0.060,-0.016,-0.198,94.000
'0:16.460',-0.059,-0.014,-0.201,94.000
'0:16.470',-0.059,-0.012,-0.205,94.000
'0:16.480',-0.058,-0.010,-0.209,94.000
'0:16.490',-0.058,-0.007,-0.212,94.000
'0:16.500',-0.057,-0.005,-0.216,94.000
'0:16.510',-0.057,-0.003,-0.220,94.000
'0:16.520',-0.057,-0.002,-0.223,94.000
'0:16.530',-0.058,0.000,-0.227,94.000
'0:16.540',-0.058,0.002,-0.230,94.000
'0:16.550',-0.058,0.004,-0.234,94.000
'0:16.560',-0.058,0.005,-0.238,94.000
'0:16.570',-0.058,0.006,-0.241,94.000
'0:16.580',-0.058,0.008,-0.245,94.000
'0:16.590',-0.058,0.009,-0.248,94.000
'0:16.600',-0.057,0.011,-0.252,94.000
'0:16.610',-0.057,0.013,-0.255,94.000
'0:16.620',-0.056,0.015,-0.258,94.000
'0:16.630',-0.055,0.017,-0.262,94.000
'0:16.640',-0.054,0.019,-0.265,94.000
'0:16.650',-0.053,0.022,-0.268,94.000
'0:16.660',-0.054,0.024,-0.271,94.000
'0:16.670',-0.054,0.027,-0.275,94.000
'0:16.680',-0.055,0.029,-0.278,94.000
'0:16.690',-0.056,0.032,-0.281,94.000
'0:16.700',-0.056,0.034,-0.284,94.000
'0:16.710',-0.056,0.036,-0.287,94.000
'0:16.720',-0.056,0.038,-0.290,94.000
'0:16.730',-0.056,0.041,-0.292,94.000
'0:16.740',-0.056,0.043,-0.295,94.000
'0:16.750',-0.055,0.045,-0.298,94.000
'0:16.760',-0.056,0.046,-0.301,94.000
'0:16.770',-0.056,0.047,-0.303,94.000
'0:16.780',-0.056,0.048,-0.305,94.000
'0:16.790',-0.056,0.049,-0.308,94.000
'0:16.800',-0.056,0.050,-0.310,94.000
'0:16.810',-0.056,0.050,-0.312,94.000
'0:16.820',-0.057,0.051,-0.315,94.000
'0:16.830',-0.058,0.051,-0.317,94.000
'0:16.840',-0.059,0.051,-0.319,94.000
'0:16.850',-0.059,0.051,-0.321,94.000
'0:16.860',-0.059,0.051,-0.323,94.000
'0:16.870',-0.058,0.051,-0.324,94.000
'0:16.880',-0.057,0.051,-0.326,94.000
'0:16.890',-0.057,0.050,-0.328,94.000
'0:16.900',-0.056,0.050,-0.329,94.000
'0:16.910',-0.056,0.048,-0.331,94.000
'0:16.920',-0.057,0.046,-0.332,94.000
'0:16.930',-0.057,0.043,-0.333,94.000
'0:16.940',-0.057,0.041,-0.335,94.000
'0:16.950',-0.057,0.039,-0.336,94.000
'0:16.960',-0.057,0.035,-0.337,94.000
'0:16.970',-0.057,0.032,-0.337,94.000
'0:16.980',-0.057,0.029,-0.338,94.000
'0:16.990',-0.057,0.026,-0.339,94.000
'0:17.000',-0.057,0.022,-0.340,94.000
'0:17.010',-0.056,0.021,-0.339,94.000
'0:17.020',-0.055,0.019,-0.338,94.000
'0:17.030',-0.054,0.018,-0.337,94.000
'0:17.040',-0.053,0.016,-0.336,94.000
'0:17.050',-0.052,0.015,-0.335,94.000
'0:17.060',-0.052,0.013,-0.332,94.000
'0:17.070',-0.052,0.012,-0.328,94.000
'0:17.080',-0.052,0.010,-0.325,94.000
'0:17.090',-0.051,0.009,-0.322,94.000
'0:17.100',-0.051,0.007,-0.319,94.000
'0:17.110',-0.051,0.005,-0.314,94.000
'0:17.120',-0.051,0.003,-0.308,94.000
'0:17.130',-0.051,0.001,-0.303,94.000
'0:17.140',-0.051,-0.002,-0.298,94.000
'0:17.150',-0.051,-0.004,-0.293,94.000
'0:17.160',-0.052,-0.006,-0.287,94.000
'0:17.170',-0.053,-0.008,-0.281,94.000
'0:17.180',-0.054,-0.010,-0.274,94.000
'0:17.190',-0.055,-0.012,-0.268,94.000
'0:17.200',-0.056,-0.014,-0.262,94.000
'0:17.210',-0.057,-0.016,-0.254,94.000
'0:17.220',-0.058,-0.018,-0.247,94.000
'0:17.230',-0.059,-0.020,-0.240,94.000
'0:17.240',-0.060,-0.022,-0.233,94.000
'0:17.250',-0.061,-0.025,-0.226,94.000
'0:17.260',-0.062,-0.027,-0.218,94.000
'0:17.270',-0.064,-0.030,-0.211,94.000
'0:17.280',-0.065,-0.032,-0.203,94.000
'0:17.290',-0.066,-0.035,-0.195,94.000
'0:17.300',-0.068,-0.037,-0.188,94.000
'0:17.310',-0.069,-0.039,-0.180,94.000
'0:17.320',-0.070,-0.042,-0.172,94.000
'0:17.330',-0.071,-0.044,-0.164,94.000
'0:17.340',-0.073,-0.046,-0.156,94.000
'0:17.350',-0.074,-0.048,-0.148,94.000
'0:17.360',-0.075,-0.050,-0.139,94.000
'0:17.370',-0.077,-0.052,-0.131,94.000
'0:17.380',-0.078,-0.054,-0.123,94.000
'0:17.390',-0.079,-0.056,-0.115,94.000
'0:17.400',-0.080,-0.058,-0.107,94.000
'0:17.410',-0.082,-0.060,-0.099,94.000
'0:17.420',-0.083,-0.062,-0.091,94.000
'0:17.430',-0.084,-0.064,-0.083,94.000
'0:17.440',-0.085,-0.066,-0.075,94.000
'0:17.450',-0.087,-0.068,-0.067,94.000
'0:17.460',-0.087,-0.069,-0.059,94.000
'0:17.470',-0.088,-0.070,-0.051,94.000
'0:17.480',-0.089,-0.072,-0.044,94.000
'0:17.490',-0.090,-0.073,-0.036,94.000
'0:17.500',-0.090,-0.074,-0.028,94.000
'0:17.510',-0.092,-0.077,-0.021,94.000
'0:17.520',-0.094,-0.080,-0.013,94.000
'0:17.530',-0.096,-0.082,-0.006,94.000
'0:17.540',-0.098,-0.085,0.001,94.000
'0:17.550',-0.100,-0.087,0.009,94.000
'0:17.560',-0.102,-0.090,0.016,94.000
'0:17.570',-0.105,-0.093,0.023,94.000
'0:17.580',-0.108,-0.096,0.029,94.000
'0:17.590',-0.110,-0.099,0.036,94.000
'0:17.600',-0.113,-0.102,0.043,94.000
'0:17.610',-0.115,-0.104,0.050,94.000
'0:17.620',-0.117,-0.106,0.056,94.000
'0:17.630',-0.119,-0.108,0.063,94.000
'0:17.640',-0.121,-0.110,0.069,94.000
'0:17.650',-0.122,-0.112,0.075,94.000
'0:17.660',-0.123,-0.114,0.081,94.000
'0:17.670',-0.124,-0.116,0.087,94.000
'0:17.680',-0.125,-0.117,0.093,94.000
'0:17.690',-0.126,-0.119,0.099,94.000
'0:17.700',-0.127,-0.121,0.104,94.000
'0:17.710',-0.127,-0.123,0.109,94.000
'0:17.720',-0.127,-0.125,0.114,94.000
'0:17.730',-0.127,-0.127,0.119,94.000
'0:17.740',-0.127,-0.130,0.124,94.000
'0:17.750',-0.127,-0.132,0.130,94.000
'0:17.760',-0.126,-0.134,0.134,94.000
'0:17.770',-0.126,-0.137,0.139,94.000
'0:17.780',-0.125,-0.139,0.143,94.000
'0:17.790',-0.125,-0.141,0.147,94.000
'0:17.800',-0.124,-0.144,0.152,94.000
'0:17.810',-0.125,-0.146,0.156,94.000
'0:17.820',-0.126,-0.148,0.160,94.000
'0:17.830',-0.126,-0.151,0.164,94.000
'0:17.840',-0.127,-0.153,0.168,94.000
'0:17.850',-0.127,-0.155,0.172,94.000
'0:17.860',-0.128,-0.158,0.176,94.000
'0:17.870',-0.129,-0.161,0.180,94.000
'0:17.880',-0.129,-0.164,0.183,94.000
'0:17.890',-0.130,-0.166,0.187,94.000
'0:17.900',-0.130,-0.169,0.191,94.000
'0:17.910',-0.130,-0.172,0.194,94.000
'0:17.920',-0.130,-0.175,0.198,94.000
'0:17.930',-0.130,-0.178,0.201,94.000
'0:17.940',-0.130,-0.181,0.205,94.000
'0:17.950',-0.130,-0.184,0.208,94.000
'0:17.960',-0.130,-0.190,0.211,94.000
'0:17.970',-0.130,-0.196,0.215,94.000
'0:17.980',-0.130,-0.202,0.218,94.000
'0:17.990',-0.130,-0.208,0.221,94.000
'0:18.000',-0.129,-0.214,0.224,94.000
'0:18.010',-0.130,-0.217,0.227,94.000
'0:18.020',-0.131,-0.220,0.230,94.000
'0:18.030',-0.132,-0.223,0.233,94.000
'0:18.040',-0.132,-0.226,0.236,94.000
'0:18.050',-0.133,-0.229,0.239,94.000
'0:18.060',-0.133,-0.231,0.241,94.000
'0:18.070',-0.133,-0.232,0.244,94.000
'0:18.080',-0.133,-0.233,0.247,94.000
'0:18.090',-0.133,-0.234,0.249,94.000
'0:18.100',-0.133,-0.235,0.252,94.000
'0:18.110',-0.133,-0.240,0.255,94.000
'0:18.120',-0.132,-0.244,0.257,94.000
'0:18.130',-0.132,-0.249,0.259,94.000
'0:18.140',-0.132,-0.253,0.261,94.000
'0:18.150',-0.131,-0.258,0.264,94.000
'0:18.160',-0.132,-0.260,0.265,94.000
'0:18.170',-0.132,-0.263,0.267,94.000
'0:18.180',-0.132,-0.265,0.269,94.000
'0:18.190',-0.133,-0.268,0.271,94.000
'0:18.200',-0.133,-0.270,0.273,94.000
'0:18.210',-0.133,-0.272,0.275,94.000
'0:18.220',-0.133,-0.274,0.277,94.000
'0:18.230',-0.133,-0.275,0.279,94.000
'0:18.240',-0.133,-0.277,0.280,94.000
'0:18.250',-0.133,-0.278,0.282,94.000
'0:18.260',-0.134,-0.279,0.284,94.000
'0:18.270',-0.135,-0.280,0.286,94.000
'0:18.280',-0.136,-0.281,0.287,94.000
'0:18.290',-0.137,-0.282,0.289,94.000
'0:18.300',-0.138,-0.283,0.291,94.000
'0:18.310',-0.139,-0.284,0.292,94.000
'0:18.320',-0.140,-0.285,0.293,94.000
'0:18.330',-0.141,-0.285,0.294,94.000
'0:18.340',-0.142,-0.286,0.295,94.000
'0:18.350',-0.143,-0.287,0.297,94.000
'0:18.360',-0.143,-0.285,0.298,94.000
'0:18.370',-0.144,-0.283,0.299,94.000
'0:18.380',-0.144,-0.282,0.300,94.000
'0:18.390',-0.145,-0.280,0.301,94.000
'0:18.400',-0.146,-0.278,0.302,94.000
'0:18.410',-0.146,-0.279,0.303,94.000
'0:18.420',-0.145,-0.279,0.304,94.000
'0:18.430',-0.145,-0.279,0.305,94.000
'0:18.440',-0.145,-0.280,0.306,94.000
'0:18.450',-0.145,-0.280,0.307,94.000
'0:18.460',-0.145,-0.286,0.308,94.000
'0:18.470',-0.145,-0.292,0.308,94.000
'0:18.480',-0.145,-0.297,0.309,94.000
'0:18.490',-0.145,-0.303,0.309,94.000
'0:18.500',-0.145,-0.309,0.310,94.000
'0:18.510',-0.145,-0.311,0.310,94.000
'0:18.520',-0.146,-0.313,0.310,94.000
'0:18.530',-0.147,-0.315,0.311,94.000
'0:18.540',-0.148,-0.317,0.311,94.000
'0:18.550',-0.148,-0.319,0.311,94.000
'0:18.560',-0.148,-0.318,0.311,94.000
'0:18.570',-0.147,-0.316,0.311,94.000
'0:18.580',-0.146,-0.314,0.312,94.000
'0:18.590',-0.146,-0.313,0.312,94.000
'0:18.600',-0.145,-0.311,0.312,94.000
'0:18.610',-0.145,-0.311,0.312,94.000
'0:18.620',-0.145,-0.312,0.312,94.000
'0:18.630',-0.145,-0.312,0.312,94.000
'0:18.640',-0.145,-0.312,0.312,94.000
'0:18.650',-0.145,-0.312,0.312,94.000
'0:18.660',-0.144,-0.314,0.312,94.000
'0:18.670',-0.143,-0.315,0.312,94.000
'0:18.680',-0.143,-0.317,0.312,94.000
'0:18.690',-0.142,-0.318,0.313,94.000
'0:18.700',-0.142,-0.320,0.313,94.000
'0:18.710',-0.142,-0.320,0.313,94.000
'0:18.720',-0.142,-0.319,0.314,94.000
'0:18.730',-0.142,-0.319,0.314,94.000
'0:18.740',-0.142,-0.318,0.314,94.000
'0:18.750',-0.142,-0.318,0.315,94.000
'0:18.760',-0.142,-0.316,0.315,94.000
'0:18.770',-0.142,-0.314,0.315,94.000
'0:18.780',-0.141,-0.312,0.316,94.000
'0:18.790',-0.141,-0.310,0.316,94.000
'0:18.800',-0.141,-0.308,0.316,94.000
'0:18.810',-0.141,-0.308,0.317,94.000
'0:18.820',-0.140,-0.308,0.317,94.000
'0:18.830',-0.139,-0.308,0.317,94.000
'0:18.840',-0.138,-0.308,0.317,94.000
'0:18.850',-0.138,-0.308,0.317,94.000
'0:18.860',-0.138,-0.308,0.317,94.000
'0:18.870',-0.138,-0.307,0.316,94.000
'0:18.880',-0.139,-0.307,0.316,94.000
'0:18.890',-0.139,-0.306,0.315,94.000
'0:18.900',-0.139,-0.306,0.315,94.000
'0:18.910',-0.139,-0.301,0.313,94.000
'0:18.920',-0.139,-0.297,0.311,94.000
'0:18.930',-0.139,-0.293,0.309,94.000
'0:18.940',-0.139,-0.289,0.308,94.000
'0:18.950',-0.139,-0.285,0.306,94.000
'0:18.960',-0.138,-0.282,0.303,94.000
'0:18.970',-0.138,-0.279,0.300,94.000
'0:18.980',-0.137,-0.276,0.297,94.000
'0:18.990',-0.137,-0.273,0.294,94.000
'0:19.000',-0.136,-0.270,0.290,94.000
'0:19.010',-0.136,-0.269,0.286,94.000
'0:19.020',-0.136,-0.268,0.282,94.000
'0:19.030',-0.135,-0.268,0.278,94.000
'0:19.040',-0.135,-0.267,0.274,94.000
'0:19.050',-0.134,-0.266,0.270,94.000
'0:19.060',-0.134,-0.264,0.265,94.000
'0:19.070',-0.134,-0.263,0.260,94.000
'0:19.080',-0.133,-0.261,0.255,94.000
'0:19.090',-0.133,-0.259,0.251,94.000
'0:19.100',-0.133,-0.257,0.246,94.000
'0:19.110',-0.132,-0.251,0.241,94.000
'0:19.120',-0.132,-0.246,0.236,94.000
'0:19.130',-0.132,-0.240,0.231,94.000
'0:19.140',-0.131,-0.235,0.226,94.000
'0:19.150',-0.131,-0.229,0.221,94.000
'0:19.160',-0.131,-0.223,0.216,94.000
'0:19.170',-0.131,-0.217,0.212,94.000
'0:19.180',-0.131,-0.211,0.207,94.000
'0:19.190',-0.131,-0.205,0.202,94.000
'0:19.200',-0.131,-0.199,0.197,94.000
'0:19.210',-0.130,-0.200,0.192,94.000
'0:19.220',-0.129,-0.201,0.186,94.000
'0:19.230',-0.128,-0.201,0.181,94.000
'0:19.240',-0.127,-0.202,0.176,94.000
'0:19.250',-0.127,-0.203,0.171,94.000
'0:19.260',-0.125,-0.201,0.166,94.000
'0:19.270',-0.124,-0.200,0.161,94.000
'0:19.280',-0.123,-0.199,0.155,94.000
'0:19.290',-0.122,-0.198,0.150,94.000
'0:19.300',-0.121,-0.196,0.145,94.000
'0:19.310',-0.120,-0.190,0.140,94.000
'0:19.320',-0.119,-0.184,0.135,94.000
'0:19.330',-0.118,-0.177,0.130,94.000
'0:19.340',-0.117,-0.171,0.125,94.000
'0:19.350',-0.116,-0.165,0.120,94.000
'0:19.360',-0.115,-0.160,0.115,94.000
'0:19.370',-0.114,-0.155,0.110,94.000
'0:19.380',-0.113,-0.151,0.104,94.000
'0:19.390',-0.112,-0.146,0.099,94.000
'0:19.400',-0.111,-0.141,0.094,94.000
'0:19.410',-0.110,-0.138,0.090,94.000
'0:19.420',-0.110,-0.134,0.085,94.000
'0:19.430',-0.109,-0.130,0.080,94.000
'0:19.440',-0.109,-0.127,0.075,94.000
'0:19.450',-0.108,-0.123,0.071,94.000
'0:19.460',-0.107,-0.120,0.066,94.000
'0:19.470',-0.106,-0.117,0.062,94.000
'0:19.480',-0.104,-0.114,0.057,94.000
'0:19.490',-0.103,-0.111,0.052,94.000
'0:19.500',-0.102,-0.108,0.048,94.000
'0:19.510',-0.100,-0.105,0.043,94.000
'0:19.520',-0.099,-0.103,0.039,94.000
'0:19.530',-0.097,-0.101,0.034,94.000
'0:19.540',-0.096,-0.098,0.030,94.000
'0:19.550',-0.094,-0.096,0.025,94.000
'0:19.560',-0.094,-0.094,0.021,94.000
'0:19.570',-0.093,-0.093,0.017,94.000
'0:19.580',-0.093,-0.091,0.012,94.000
'0:19.590',-0.092,-0.090,0.008,94.000
'0:19.600',-0.092,-0.088,0.003,94.000
'0:19.610',-0.091,-0.087,-0.001,94.000
'0:19.620',-0.089,-0.085,-0.005,94.000
'0:19.630',-0.088,-0.083,-0.010,94.000
'0:19.640',-0.087,-0.082,-0.014,94.000
'0:19.650',-0.086,-0.080,-0.019,94.000
'0:19.660',-0.086,-0.079,-0.023,94.000
'0:19.670',-0.085,-0.077,-0.027,94.000
'0:19.680',-0.084,-0.075,-0.032,94.000
'0:19.690',-0.083,-0.074,-0.036,94.000
'0:19.700',-0.083,-0.072,-0.040,94.000
'0:19.710',-0.082,-0.070,-0.045,94.000
'0:19.720',-0.081,-0.068,-0.049,94.000
'0:19.730',-0.081,-0.066,-0.053,94.000
'0:19.740',-0.080,-0.064,-0.058,94.000
'0:19.750',-0.079,-0.062,-0.062,94.000
'0:19.760',-0.079,-0.060,-0.066,94.000
'0:19.770',-0.078,-0.059,-0.071,94.000
'0:19.780',-0.077,-0.057,-0.075,94.000
'0:19.790',-0.077,-0.055,-0.079,94.000
'0:19.800',-0.076,-0.053,-0.083,94.000
'0:19.810',-0.076,-0.052,-0.087,94.000
'0:19.820',-0.075,-0.050,-0.091,94.000
'0:19.830',-0.075,-0.049,-0.095,94.000
'0:19.840',-0.075,-0.047,-0.099,94.000
'0:19.850',-0.074,-0.046,-0.103,94.000
'0:19.860',-0.074,-0.044,-0.107,94.000
'0:19.870',-0.074,-0.043,-0.111,94.000
'0:19.880',-0.074,-0.041,-0.115,94.000
'0:19.890',-0.073,-0.039,-0.119,94.000
'0:19.900',-0.073,-0.037,-0.123,94.000
'0:19.910',-0.073,-0.036,-0.128,94.000
'0:19.920',-0.074,-0.035,-0.132,94.000
'0:19.930',-0.074,-0.034,-0.136,94.000
'0:19.940',-0.074,-0.033,-0.141,94.000
'0:19.950',-0.075,-0.032,-0.145,94.000
'0:19.960',-0.074,-0.031,-0.149,94.000
'0:19.970',-0.073,-0.029,-0.153,94.000
'0:19.980',-0.072,-0.028,-0.157,94.000
'0:19.990',-0.071,-0.026,-0.162,94.000
'0:20.000',-0.070,-0.025,-0.166,94.000
'0:20.010',-0.070,-0.024,-0.170,94.000
'0:20.020',-0.069,-0.023,-0.174,94.000
'0:20.030',-0.069,-0.022,-0.178,94.000
'0:20.040',-0.068,-0.021,-0.182,94.000
'0:20.050',-0.068,-0.020,-0.186,94.000
'0:20.060',-0.067,-0.018,-0.190,94.000
'0:20.070',-0.067,-0.016,-0.194,94.000
'0:20.080',-0.066,-0.014,-0.198,94.000
'0:20.090',-0.065,-0.012,-0.202,94.000
'0:20.100',-0.065,-0.010,-0.206,94.000
'0:20.110',-0.063,-0.008,-0.210,94.000
'0:20.120',-0.061,-0.005,-0.213,94.000
'0:20.130',-0.060,-0.002,-0.217,94.000
'0:20.140',-0.058,0.000,-0.221,94.000
'0:20.150',-0.057,0.003,-0.225,94.000
'0:20.160',-0.056,0.005,-0.228,94.000
'0:20.170',-0.056,0.007,-0.232,94.000
'0:20.180',-0.056,0.010,-0.235,94.000
'0:20.190',-0.055,0.012,-0.239,94.000
'0:20.200',-0.055,0.014,-0.243,94.000
'0:20.210',-0.054,0.017,-0.246,94.000
'0:20.220',-0.053,0.020,-0.249,94.000
'0:20.230',-0.053,0.023,-0.252,94.000
'0:20.240',-0.052,0.026,-0.256,94.000
'0:20.250',-0.052,0.029,-0.259,94.000
'0:20.260',-0.051,0.030,-0.262,94.000
'0:20.270',-0.050,0.032,-0.265,94.000
'0:20.280',-0.049,0.033,-0.268,94.000
'0:20.290',-0.048,0.035,-0.271,94.000
'0:20.300',-0.048,0.036,-0.274,94.000
'0:20.310',-0.047,0.039,-0.277,94.000
'0:20.320',-0.047,0.041,-0.279,94.000
'0:20.330',-0.047,0.043,-0.282,94.000
'0:20.340',-0.046,0.045,-0.285,94.000
'0:20.350',-0.046,0.047,-0.288,94.000
'0:20.360',-0.045,0.049,-0.290,94.000
'0:20.370',-0.045,0.051,-0.293,94.000
'0:20.380',-0.044,0.054,-0.296,94.000
'0:20.390',-0.044,0.056,-0.298,94.000
'0:20.400',-0.044,0.058,-0.301,94.000
'0:20.410',-0.043,0.059,-0.304,94.000
'0:20.420',-0.043,0.059,-0.306,94.000
'0:20.430',-0.043,0.060,-0.308,94.000
'0:20.440',-0.042,0.061,-0.311,94.000
'0:20.450',-0.042,0.062,-0.313,94.000
'0:20.460',-0.042,0.063,-0.315,94.000
'0:20.470',-0.042,0.063,-0.317,94.000
'0:20.480',-0.043,0.064,-0.319,94.000
'0:20.490',-0.043,0.065,-0.321,94.000
'0:20.500',-0.043,0.065,-0.323,94.000
'0:20.510',-0.043,0.064,-0.324,94.000
'0:20.520',-0.044,0.063,-0.326,94.000
'0:20.530',-0.044,0.062,-0.327,94.000
'0:20.540',-0.045,0.061,-0.329,94.000
'0:20.550',-0.045,0.060,-0.330,94.000
'0:20.560',-0.046,0.058,-0.331,94.000
'0:20.570',-0.046,0.056,-0.332,94.000
'0:20.580',-0.046,0.054,-0.332,94.000
'0:20.590',-0.047,0.052,-0.333,94.000
'0:20.600',-0.047,0.050,-0.333,94.000
'0:20.610',-0.047,0.048,-0.332,94.000
'0:20.620',-0.047,0.046,-0.330,94.000
'0:20.630',-0.048,0.045,-0.329,94.000
'0:20.640',-0.048,0.043,-0.328,94.000
'0:20.650',-0.048,0.042,-0.326,94.000
'0:20.660',-0.049,0.039,-0.323,94.000
'0:20.670',-0.049,0.037,-0.320,94.000
'0:20.680',-0.050,0.034,-0.316,94.000
'0:20.690',-0.051,0.032,-0.313,94.000
'0:20.700',-0.051,0.030,-0.310,94.000
'0:20.710',-0.052,0.026,-0.305,94.000
'0:20.720',-0.052,0.023,-0.301,94.000
'0:20.730',-0.052,0.019,-0.296,94.000
'0:20.740',-0.053,0.015,-0.292,94.000
'0:20.750',-0.053,0.012,-0.287,94.000
'0:20.760',-0.053,0.009,-0.282,94.000
'0:20.770',-0.053,0.006,-0.276,94.000
'0:20.780',-0.052,0.003,-0.271,94.000
'0:20.790',-0.052,-0.001,-0.266,94.000
'0:20.800',-0.052,-0.004,-0.260,94.000
'0:20.810',-0.052,-0.006,-0.254,94.000
'0:20.820',-0.052,-0.008,-0.247,94.000
'0:20.830',-0.052,-0.011,-0.241,94.000
'0:20.840',-0.052,-0.013,-0.234,94.000
'0:20.850',-0.052,-0.016,-0.227,94.000
'0:20.860',-0.052,-0.018,-0.220,94.000
'0:20.870',-0.052,-0.020,-0.213,94.000
'0:20.880',-0.053,-0.022,-0.206,94.000
'0:20.890',-0.053,-0.024,-0.198,94.000
'0:20.900',-0.053,-0.026,-0.191,94.000
'0:20.910',-0.054,-0.028,-0.183,94.000
'0:20.920',-0.055,-0.030,-0.176,94.000
'0:20.930',-0.056,-0.032,-0.168,94.000
'0:20.940',-0.057,-0.034,-0.160,94.000
'0:20.950',-0.057,-0.036,-0.152,94.000
'0:20.960',-0.059,-0.038,-0.144,94.000
'0:20.970',-0.060,-0.040,-0.136,94.000
'0:20.980',-0.062,-0.043,-0.128,94.000
'0:20.990',-0.063,-0.045,-0.120,94.000
'0:21.000',-0.065,-0.047,-0.112,94.000
'0:21.010',-0.066,-0.049,-0.103,94.000
'0:21.020',-0.068,-0.052,-0.095,94.000
'0:21.030',-0.069,-0.054,-0.087,94.000
'0:21.040',-0.071,-0.056,-0.079,94.000
'0:21.050',-0.073,-0.059,-0.071,94.000
'0:21.060',-0.074,-0.061,-0.063,94.000
'0:21.070',-0.076,-0.063,-0.055,94.000
'0:21.080',-0.078,-0.066,-0.047,94.000
'0:21.090',-0.080,-0.068,-0.039,94.000
'0:21.100',-0.081,-0.071,-0.031,94.000
'0:21.110',-0.082,-0.072,-0.023,94.000
'0:21.120',-0.082,-0.074,-0.015,94.000
'0:21.130',-0.083,-0.076,-0.008,94.000
'0:21.140',-0.084,-0.078,-0.000,94.000
'0:21.150',-0.084,-0.079,0.007,94.000
'0:21.160',-0.085,-0.081,0.014,94.000
'0:21.170',-0.085,-0.084,0.021,94.000
'0:21.180',-0.085,-0.086,0.028,94.000
'0:21.190',-0.086,-0.088,0.035,94.000
'0:21.200',-0.086,-0.090,0.043,94.000
'0:21.210',-0.087,-0.092,0.049,94.000
'0:21.220',-0.088,-0.093,0.056,94.000
'0:21.230',-0.089,-0.095,0.062,94.000
'0:21.240',-0.090,-0.097,0.069,94.000
'0:21.250',-0.091,-0.099,0.076,94.000
'0:21.260',-0.092,-0.101,0.082,94.000
'0:21.270',-0.092,-0.104,0.088,94.000
'0:21.280',-0.093,-0.106,0.094,94.000
'0:21.290',-0.094,-0.109,0.100,94.000
'0:21.300',-0.094,-0.111,0.106,94.000
'0:21.310',-0.096,-0.115,0.112,94.000
'0:21.320',-0.097,-0.119,0.117,94.000
'0:21.330',-0.098,-0.123,0.123,94.000
'0:21.340',-0.099,-0.127,0.128,94.000
'0:21.350',-0.100,-0.131,0.134,94.000
'0:21.360',-0.101,-0.134,0.139,94.000
'0:21.370',-0.102,-0.137,0.144,94.000
'0:21.380',-0.104,-0.141,0.149,94.000
'0:21.390',-0.105,-0.144,0.154,94.000
'0:21.400',-0.106,-0.147,0.160,94.000
'0:21.410',-0.107,-0.151,0.164,94.000
'0:21.420',-0.109,-0.155,0.169,94.000
'0:21.430',-0.110,-0.159,0.173,94.000
'0:21.440',-0.112,-0.163,0.178,94.000
'0:21.450',-0.113,-0.167,0.182,94.000
'0:21.460',-0.115,-0.168,0.186,94.000
'0:21.470',-0.116,-0.170,0.190,94.000
'0:21.480',-0.118,-0.171,0.194,94.000
'0:21.490',-0.120,-0.172,0.199,94.000
'0:21.500',-0.121,-0.173,0.203,94.000
'0:21.510',-0.121,-0.179,0.206,94.000
'0:21.520',-0.121,-0.184,0.209,94.000
'0:21.530',-0.121,-0.190,0.213,94.000
'0:21.540',-0.121,-0.196,0.216,94.000
'0:21.550',-0.120,-0.202,0.220,94.000
'0:21.560',-0.120,-0.212,0.222,94.000
'0:21.570',-0.120,-0.223,0.225,94.000
'0:21.580',-0.120,-0.233,0.228,94.000
'0:21.590',-0.120,-0.243,0.231,94.000
'0:21.600',-0.120,-0.254,0.233,94.000
'0:21.610',-0.120,-0.257,0.236,94.000
'0:21.620',-0.120,-0.259,0.238,94.000
'0:21.630',-0.120,-0.262,0.240,94.000
'0:21.640',-0.120,-0.265,0.243,94.000
'0:21.650',-0.120,-0.267,0.245,94.000
'0:21.660',-0.120,-0.269,0.247,94.000
'0:21.670',-0.120,-0.270,0.249,94.000
'0:21.680',-0.120,-0.271,0.251,94.000
'0:21.690',-0.120,-0.272,0.253,94.000
'0:21.700',-0.120,-0.273,0.255,94.000
'0:21.710',-0.120,-0.276,0.257,94.000
'0:21.720',-0.120,-0.279,0.259,94.000
'0:21.730',-0.121,-0.281,0.261,94.000
'0:21.740',-0.121,-0.284,0.262,94.000
'0:21.750',-0.122,-0.287,0.264,94.000
'0:21.760',-0.121,-0.289,0.266,94.000
'0:21.770',-0.121,-0.290,0.268,94.000
'0:21.780',-0.120,-0.292,0.270,94.000
'0:21.790',-0.120,-0.294,0.272,94.000
'0:21.800',-0.120,-0.295,0.273,94.000
'0:21.810',-0.120,-0.296,0.275,94.000
'0:21.820',-0.121,-0.297,0.277,94.000
'0:21.830',-0.121,-0.298,0.278,94.000
'0:21.840',-0.122,-0.299,0.280,94.000
'0:21.850',-0.123,-0.300,0.281,94.000
'0:21.860',-0.124,-0.301,0.283,94.000
'0:21.870',-0.124,-0.303,0.284,94.000
'0:21.880',-0.125,-0.304,0.286,94.000
'0:21.890',-0.126,-0.306,0.287,94.000
'0:21.900',-0.127,-0.307,0.289,94.000
'0:21.910',-0.127,-0.310,0.290,94.000
'0:21.920',-0.126,-0.314,0.292,94.000
'0:21.930',-0.126,-0.317,0.293,94.000
'0:21.940',-0.125,-0.320,0.294,94.000
'0:21.950',-0.125,-0.323,0.296,94.000
'0:21.960',-0.125,-0.324,0.297,94.000
'0:21.970',-0.125,-0.326,0.298,94.000
'0:21.980',-0.126,-0.327,0.300,94.000
'0:21.990',-0.126,-0.328,0.301,94.000
'0:22.000',-0.126,-0.329,0.302,94.000
'0:22.010',-0.126,-0.329,0.303,94.000
'0:22.020',-0.127,-0.328,0.304,94.000
'0:22.030',-0.127,-0.328,0.305,94.000
'0:22.040',-0.127,-0.328,0.306,94.000
'0:22.050',-0.128,-0.328,0.307,94.000
'0:22.060',-0.128,-0.329,0.308,94.000
'0:22.070',-0.128,-0.329,0.309,94.000
'0:22.080',-0.127,-0.330,0.309,94.000
'0:22.090',-0.127,-0.331,0.310,94.000
'0:22.100',-0.127,-0.332,0.311,94.000
'0:22.110',-0.128,-0.332,0.312,94.000
'0:22.120',-0.128,-0.332,0.313,94.000
'0:22.130',-0.129,-0.332,0.314,94.000
'0:22.140',-0.129,-0.332,0.315,94.000
'0:22.150',-0.130,-0.332,0.316,94.000
'0:22.160',-0.131,-0.331,0.316,94.000
'0:22.170',-0.132,-0.330,0.317,94.000
'0:22.180',-0.133,-0.329,0.318,94.000
'0:22.190',-0.134,-0.327,0.319,94.000
'0:22.200',-0.135,-0.326,0.319,94.000
'0:22.210',-0.135,-0.325,0.320,94.000
'0:22.220',-0.136,-0.324,0.321,94.000
'0:22.230',-0.136,-0.323,0.321,94.000
'0:22.240',-0.137,-0.322,0.322,94.000
'0:22.250',-0.138,-0.321,0.322,94.000
'0:22.260',-0.138,-0.322,0.322,94.000
'0:22.270',-0.138,-0.324,0.322,94.000
'0:22.280',-0.138,-0.325,0.323,94.000
'0:22.290',-0.139,-0.326,0.323,94.000
'0:22.300',-0.139,-0.327,0.323,94.000
'0:22.310',-0.138,-0.329,0.322,94.000
'0:22.320',-0.138,-0.332,0.321,94.000
'0:22.330',-0.138,-0.334,0.320,94.000
'0:22.340',-0.137,-0.336,0.319,94.000
'0:22.350',-0.137,-0.339,0.318,94.000
'0:22.360',-0.137,-0.338,0.316,94.000
'0:22.370',-0.136,-0.338,0.314,94.000
'0:22.380',-0.136,-0.337,0.312,94.000
'0:22.390',-0.136,-0.337,0.310,94.000
'0:22.400',-0.135,-0.336,0.308,94.000
'0:22.410',-0.135,-0.335,0.305,94.000
'0:22.420',-0.135,-0.333,0.303,94.000
'0:22.430',-0.135,-0.332,0.300,94.000
'0:22.440',-0.134,-0.331,0.297,94.000
'0:22.450',-0.134,-0.329,0.295,94.000
'0:22.460',-0.134,-0.330,0.292,94.000
'0:22.470',-0.133,-0.331,0.288,94.000
'0:22.480',-0.133,-0.332,0.285,94.000
'0:22.490',-0.132,-0.333,0.282,94.000
'0:22.500',-0.132,-0.335,0.279,94.000
'0:22.510',-0.131,-0.334,0.276,94.000
'0:22.520',-0.130,-0.333,0.274,94.000
'0:22.530',-0.129,-0.333,0.271,94.000
'0:22.540',-0.129,-0.332,0.268,94.000
'0:22.550',-0.128,-0.332,0.266,94.000
'0:22.560',-0.128,-0.330,0.264,94.000
'0:22.570',-0.127,-0.329,0.262,94.000
'0:22.580',-0.127,-0.328,0.260,94.000
'0:22.590',-0.127,-0.326,0.258,94.000
'0:22.600',-0.127,-0.325,0.256,94.000
'0:22.610',-0.127,-0.323,0.254,94.000
'0:22.620',-0.127,-0.322,0.252,94.000
'0:22.630',-0.127,-0.321,0.250,94.000
'0:22.640',-0.127,-0.320,0.249,94.000
'0:22.650',-0.127,-0.318,0.247,94.000
'0:22.660',-0.127,-0.316,0.244,94.000
'0:22.670',-0.127,-0.314,0.242,94.000
'0:22.680',-0.126,-0.312,0.240,94.000
'0:22.690',-0.126,-0.310,0.238,94.000
'0:22.700',-0.125,-0.308,0.235,94.000
'0:22.710',-0.125,-0.306,0.232,94.000
'0:22.720',-0.125,-0.303,0.229,94.000
'0:22.730',-0.125,-0.301,0.226,94.000
'0:22.740',-0.125,-0.298,0.223,94.000
'0:22.750',-0.125,-0.296,0.220,94.000
'0:22.760',-0.124,-0.292,0.216,94.000
'0:22.770',-0.124,-0.288,0.212,94.000
'0:22.780',-0.124,-0.284,0.209,94.000
'0:22.790',-0.124,-0.280,0.205,94.000
'0:22.800',-0.124,-0.276,0.202,94.000
'0:22.810',-0.123,-0.275,0.198,94.000
'0:22.820',-0.122,-0.274,0.194,94.000
'0:22.830',-0.121,-0.273,0.191,94.000
'0:22.840',-0.121,-0.272,0.187,94.000
'0:22.850',-0.120,-0.270,0.183,94.000
'0:22.860',-0.119,-0.267,0.179,94.000
'0:22.870',-0.118,-0.264,0.176,94.000
'0:22.880',-0.117,-0.261,0.172,94.000
'0:22.890',-0.117,-0.258,0.168,94.000
'0:22.900',-0.116,-0.255,0.164,94.000
'0:22.910',-0.117,-0.250,0.161,94.000
'0:22.920',-0.117,-0.246,0.157,94.000
'0:22.930',-0.118,-0.241,0.153,94.000
'0:22.940',-0.119,-0.237,0.149,94.000
'0:22.950',-0.120,-0.232,0.146,94.000
'0:22.960',-0.120,-0.227,0.142,94.000
'0:22.970',-0.120,-0.223,0.138,94.000
'0:22.980',-0.120,-0.218,0.135,94.000
'0:22.990',-0.120,-0.213,0.131,94.000
'0:23.000',-0.120,-0.209,0.128,94.000
'0:23.010',-0.120,-0.205,0.124,94.000
'0:23.020',-0.119,-0.200,0.120,94.000
'0:23.030',-0.118,-0.196,0.117,94.000
'0:23.040',-0.117,-0.192,0.113,94.000
'0:23.050',-0.116,-0.187,0.110,94.000
'0:23.060',-0.116,-0.190,0.106,94.000
'0:23.070',-0.115,-0.193,0.103,94.000
'0:23.080',-0.114,-0.195,0.099,94.000
'0:23.090',-0.113,-0.198,0.096,94.000
'0:23.100',-0.112,-0.200,0.092,94.000
'0:23.110',-0.111,-0.196,0.088,94.000
'0:23.120',-0.110,-0.191,0.085,94.000
'0:23.130',-0.110,-0.187,0.081,94.000
'0:23.140',-0.109,-0.183,0.078,94.000
'0:23.150',-0.108,-0.178,0.074,94.000
'0:23.160',-0.108,-0.168,0.070,94.000
'0:23.170',-0.107,-0.159,0.067,94.000
'0:23.180',-0.107,-0.149,0.063,94.000
'0:23.190',-0.107,-0.139,0.060,94.000
'0:23.200',-0.106,-0.129,0.056,94.000
'0:23.210',-0.105,-0.126,0.052,94.000
'0:23.220',-0.104,-0.123,0.049,94.000
'0:23.230',-0.103,-0.120,0.045,94.000
'0:23.240',-0.102,-0.117,0.041,94.000
'0:23.250',-0.101,-0.114,0.037,94.000
'0:23.260',-0.100,-0.112,0.034,94.000
'0:23.270',-0.099,-0.110,0.030,94.000
'0:23.280',-0.098,-0.108,0.026,94.000
'0:23.290',-0.097,-0.106,0.022,94.000
'0:23.300',-0.096,-0.105,0.019,94.000
'0:23.310',-0.095,-0.103,0.015,94.000
'0:23.320',-0.094,-0.101,0.011,94.000
'0:23.330',-0.093,-0.099,0.008,94.000
'0:23.340',-0.092,-0.097,0.004,94.000
'0:23.350',-0.091,-0.095,0.001,94.000
'0:23.360',-0.090,-0.093,-0.003,94.000
'0:23.370',-0.090,-0.091,-0.007,94.000
'0:23.380',-0.089,-0.090,-0.011,94.000
'0:23.390',-0.088,-0.088,-0.014,94.000
'0:23.400',-0.087,-0.086,-0.018,94.000
'0:23.410',-0.086,-0.084,-0.022,94.000
'0:23.420',-0.085,-0.082,-0.026,94.000
'0:23.430',-0.084,-0.081,-0.030,94.000
'0:23.440',-0.083,-0.079,-0.034,94.000
'0:23.450',-0.082,-0.077,-0.037,94.000
'0:23.460',-0.081,-0.075,-0.041,94.000
'0:23.470',-0.080,-0.073,-0.045,94.000
'0:23.480',-0.079,-0.072,-0.049,94.000
'0:23.490',-0.078,-0.070,-0.052,94.000
'0:23.500',-0.077,-0.069,-0.056,94.000
'0:23.510',-0.077,-0.067,-0.060,94.000
'0:23.520',-0.077,-0.065,-0.063,94.000
'0:23.530',-0.077,-0.063,-0.067,94.000
'0:23.540',-0.077,-0.062,-0.071,94.000
'0:23.550',-0.077,-0.060,-0.074,94.000
'0:23.560',-0.077,-0.059,-0.078,94.000
'0:23.570',-0.077,-0.058,-0.082,94.000
'0:23.580',-0.076,-0.056,-0.085,94.000
'0:23.590',-0.076,-0.055,-0.089,94.000
'0:23.600',-0.076,-0.054,-0.092,94.000
'0:23.610',-0.075,-0.052,-0.096,94.000
'0:23.620',-0.074,-0.050,-0.099,94.000
'0:23.630',-0.073,-0.048,-0.103,94.000
'0:23.640',-0.073,-0.046,-0.106,94.000
'0:23.650',-0.072,-0.045,-0.110,94.000
'0:23.660',-0.072,-0.043,-0.113,94.000
'0:23.670',-0.072,-0.041,-0.117,94.000
'0:23.680',-0.072,-0.040,-0.120,94.000
'0:23.690',-0.072,-0.038,-0.123,94.000
'0:23.700',-0.072,-0.037,-0.127,94.000
'0:23.710',-0.072,-0.035,-0.130,94.000
'0:23.720',-0.072,-0.034,-0.134,94.000
'0:23.730',-0.072,-0.032,-0.137,94.000
'0:23.740',-0.072,-0.031,-0.140,94.000
'0:23.750',-0.072,-0.029,-0.143,94.000
'0:23.760',-0.071,-0.028,-0.147,94.000
'0:23.770',-0.070,-0.026,-0.150,94.000
'0:23.780',-0.070,-0.024,-0.153,94.000
'0:23.790',-0.069,-0.022,-0.156,94.000
'0:23.800',-0.068,-0.020,-0.159,94.000
'0:23.810',-0.068,-0.019,-0.162,94.000
'0:23.820',-0.067,-0.018,-0.165,94.000
'0:23.830',-0.066,-0.017,-0.169,94.000
'0:23.840',-0.065,-0.016,-0.172,94.000
'0:23.850',-0.064,-0.015,-0.175,94.000
'0:23.860',-0.063,-0.014,-0.178,94.000
'0:23.870',-0.062,-0.012,-0.181,94.000
'0:23.880',-0.061,-0.011,-0.184,94.000
'0:23.890',-0.060,-0.010,-0.186,94.000
'0:23.900',-0.059,-0.009,-0.190,94.000
'0:23.910',-0.058,-0.007,-0.192,94.000
'0:23.920',-0.057,-0.005,-0.195,94.000
'0:23.930',-0.056,-0.003,-0.198,94.000
'0:23.940',-0.055,-0.001,-0.200,94.000
'0:23.950',-0.054,0.000,-0.203,94.000
'0:23.960',-0.053,0.002,-0.206,94.000
'0:23.970',-0.052,0.004,-0.208,94.000
'0:23.980',-0.051,0.006,-0.211,94.000
'0:23.990',-0.050,0.008,-0.213,94.000
'0:24.000',-0.049,0.010,-0.216,94.000
'0:24.010',-0.049,0.012,-0.218,94.000
'0:24.020',-0.049,0.013,-0.220,94.000
'0:24.030',-0.050,0.015,-0.223,94.000
'0:24.040',-0.050,0.016,-0.225,94.000
'0:24.050',-0.050,0.017,-0.227,94.000
'0:24.060',-0.050,0.018,-0.229,94.000
'0:24.070',-0.050,0.019,-0.231,94.000
'0:24.080',-0.050,0.020,-0.233,94.000
'0:24.090',-0.050,0.021,-0.235,94.000
'0:24.100',-0.050,0.022,-0.237,94.000
'0:24.110',-0.049,0.024,-0.239,94.000
'0:24.120',-0.049,0.025,-0.241,94.000
'0:24.130',-0.048,0.026,-0.242,94.000
'0:24.140',-0.047,0.028,-0.244,94.000
'0:24.150',-0.047,0.029,-0.246,94.000
'0:24.160',-0.047,0.029,-0.248,94.000
'0:24.170',-0.048,0.029,-0.249,94.000
'0:24.180',-0.048,0.030,-0.250,94.000
'0:24.190',-0.048,0.030,-0.252,94.000
'0:24.200',-0.049,0.030,-0.253,94.000
'0:24.210',-0.049,0.030,-0.254,94.000
'0:24.220',-0.049,0.030,-0.256,94.000
'0:24.230',-0.049,0.030,-0.257,94.000
'0:24.240',-0.049,0.029,-0.258,94.000
'0:24.250',-0.049,0.029,-0.259,94.000
'0:24.260',-0.049,0.028,-0.260,94.000
'0:24.270',-0.050,0.028,-0.261,94.000
'0:24.280',-0.051,0.027,-0.261,94.000
'0:24.290',-0.051,0.026,-0.262,94.000
'0:24.300',-0.052,0.025,-0.263,94.000
'0:24.310',-0.052,0.024,-0.262,94.000
'0:24.320',-0.053,0.023,-0.262,94.000
'0:24.330',-0.053,0.022,-0.261,94.000
'0:24.340',-0.053,0.021,-0.261,94.000
'0:24.350',-0.054,0.020,-0.260,94.000
'0:24.360',-0.053,0.019,-0.258,94.000
'0:24.370',-0.052,0.017,-0.255,94.000
'0:24.380',-0.051,0.016,-0.253,94.000
'0:24.390',-0.050,0.015,-0.250,94.000
'0:24.400',-0.049,0.014,-0.248,94.000
'0:24.410',-0.050,0.011,-0.244,94.000
'0:24.420',-0.050,0.009,-0.240,94.000
'0:24.430',-0.050,0.007,-0.236,94.000
'0:24.440',-0.051,0.004,-0.232,94.000
'0:24.450',-0.051,0.002,-0.227,94.000
'0:24.460',-0.053,-0.000,-0.222,94.000
'0:24.470',-0.054,-0.003,-0.216,94.000
'0:24.480',-0.056,-0.005,-0.211,94.000
'0:24.490',-0.057,-0.007,-0.206,94.000
'0:24.500',-0.059,-0.010,-0.200,94.000
'0:24.510',-0.061,-0.013,-0.194,94.000
'0:24.520',-0.063,-0.016,-0.188,94.000
'0:24.530',-0.065,-0.019,-0.181,94.000
'0:24.540',-0.067,-0.022,-0.175,94.000
'0:24.550',-0.069,-0.025,-0.169,94.000
'0:24.560',-0.070,-0.027,-0.162,94.000
'0:24.570',-0.071,-0.029,-0.156,94.000
'0:24.580',-0.073,-0.032,-0.149,94.000
'0:24.590',-0.074,-0.034,-0.142,94.000
'0:24.600',-0.075,-0.037,-0.136,94.000
'0:24.610',-0.075,-0.039,-0.129,94.000
'0:24.620',-0.076,-0.041,-0.123,94.000
'0:24.630',-0.076,-0.043,-0.116,94.000
'0:24.640',-0.076,-0.045,-0.109,94.000
'0:24.650',-0.076,-0.047,-0.103,94.000
'0:24.660',-0.076,-0.048,-0.096,94.000
'0:24.670',-0.077,-0.050,-0.089,94.000
'0:24.680',-0.077,-0.052,-0.083,94.000
'0:24.690',-0.078,-0.053,-0.076,94.000
'0:24.700',-0.078,-0.055,-0.069,94.000
'0:24.710',-0.078,-0.056,-0.062,94.000
'0:24.720',-0.079,-0.058,-0.056,94.000
'0:24.730',-0.080,-0.060,-0.049,94.000
'0:24.740',-0.080,-0.061,-0.043,94.000
'0:24.750',-0.081,-0.063,-0.036,94.000
'0:24.760',-0.082,-0.064,-0.029,94.000
'0:24.770',-0.083,-0.066,-0.023,94.000
'0:24.780',-0.084,-0.068,-0.016,94.000
'0:24.790',-0.086,-0.070,-0.010,94.000
'0:24.800',-0.087,-0.072,-0.003,94.000
'0:24.810',-0.088,-0.073,0.003,94.000
'0:24.820',-0.088,-0.075,0.010,94.000
'0:24.830',-0.089,-0.077,0.016,94.000
'0:24.840',-0.090,-0.079,0.023,94.000
'0:24.850',-0.091,-0.080,0.029,94.000
'0:24.860',-0.091,-0.082,0.035,94.000
'0:24.870',-0.091,-0.083,0.042,94.000
'0:24.880',-0.092,-0.084,0.048,94.000
'0:24.890',-0.092,-0.086,0.054,94.000
'0:24.900',-0.092,-0.087,0.061,94.000
'0:24.910',-0.093,-0.089,0.066,94.000
'0:24.920',-0.094,-0.090,0.072,94.000
'0:24.930',-0.095,-0.092,0.078,94.000
'0:24.940',-0.096,-0.094,0.084,94.000
'0:24.950',-0.097,-0.096,0.090,94.000
'0:24.960',-0.098,-0.098,0.096,94.000
'0:24.970',-0.099,-0.100,0.101,94.000
'0:24.980',-0.100,-0.102,0.107,94.000
'0:24.990',-0.102,-0.104,0.112,94.000
'0:25.000',-0.103,-0.107,0.118,94.000
'0:25.010',-0.103,-0.108,0.123,94.000
'0:25.020',-0.104,-0.109,0.128,94.000
'0:25.030',-0.104,-0.111,0.133,94.000
'0:25.040',-0.104,-0.112,0.138,94.000
'0:25.050',-0.105,-0.113,0.143,94.000
'0:25.060',-0.105,-0.115,0.148,94.000
'0:25.070',-0.105,-0.117,0.152,94.000
'0:25.080',-0.105,-0.119,0.157,94.000
'0:25.090',-0.105,-0.120,0.162,94.000
'0:25.100',-0.106,-0.122,0.167,94.000
'0:25.110',-0.107,-0.126,0.171,94.000
'0:25.120',-0.108,-0.130,0.176,94.000
'0:25.130',-0.109,-0.134,0.180,94.000
'0:25.140',-0.110,-0.138,0.185,94.000
'0:25.150',-0.111,-0.142,0.189,94.000
'0:25.160',-0.112,-0.148,0.193,94.000
'0:25.170',-0.113,-0.153,0.197,94.000
'0:25.180',-0.113,-0.158,0.201,94.000
'0:25.190',-0.114,-0.164,0.205,94.000
'0:25.200',-0.115,-0.169,0.209,94.000
'0:25.210',-0.115,-0.171,0.213,94.000
'0:25.220',-0.116,-0.173,0.217,94.000
'0:25.230',-0.116,-0.175,0.221,94.000
'0:25.240',-0.117,-0.178,0.224,94.000
'0:25.250',-0.117,-0.180,0.228,94.000
'0:25.260',-0.118,-0.182,0.232,94.000
'0:25.270',-0.119,-0.185,0.235,94.000
'0:25.280',-0.120,-0.188,0.238,94.000
'0:25.290',-0.121,-0.190,0.242,94.000
'0:25.300',-0.122,-0.193,0.245,94.000
'0:25.310',-0.123,-0.198,0.248,94.000
'0:25.320',-0.123,-0.203,0.251,94.000
'0:25.330',-0.124,-0.208,0.254,94.000
'0:25.340',-0.125,-0.213,0.257,94.000
'0:25.350',-0.125,-0.218,0.260,94.000
'0:25.360',-0.125,-0.226,0.262,94.000
'0:25.370',-0.125,-0.234,0.265,94.000
'0:25.380',-0.125,-0.242,0.267,94.000
'0:25.390',-0.125,-0.249,0.270,94.000
'0:25.400',-0.125,-0.257,0.272,94.000
'0:25.410',-0.125,-0.265,0.275,94.000
'0:25.420',-0.125,-0.272,0.277,94.000
'0:25.430',-0.125,-0.279,0.279,94.000
'0:25.440',-0.125,-0.286,0.281,94.000
'0:25.450',-0.124,-0.293,0.283,94.000
'0:25.460',-0.125,-0.294,0.285,94.000
'0:25.470',-0.125,-0.294,0.287,94.000
'0:25.480',-0.125,-0.295,0.289,94.000
'0:25.490',-0.125,-0.295,0.291,94.000
'0:25.500',-0.125,-0.296,0.293,94.000
'0:25.510',-0.125,-0.296,0.294,94.000
'0:25.520',-0.125,-0.297,0.296,94.000
'0:25.530',-0.125,-0.297,0.297,94.000
'0:25.540',-0.125,-0.298,0.299,94.000
'0:25.550',-0.124,-0.298,0.300,94.000
'0:25.560',-0.124,-0.299,0.302,94.000
'0:25.570',-0.124,-0.299,0.303,94.000
'0:25.580',-0.124,-0.299,0.304,94.000
'0:25.590',-0.124,-0.300,0.306,94.000
'0:25.600',-0.124,-0.300,0.307,94.000
'0:25.610',-0.125,-0.303,0.309,94.000
'0:25.620',-0.125,-0.306,0.311,94.000
'0:25.630',-0.126,-0.308,0.312,94.000
'0:25.640',-0.126,-0.311,0.314,94.000
'0:25.650',-0.127,-0.314,0.315,94.000
'0:25.660',-0.127,-0.317,0.317,94.000
'0:25.670',-0.128,-0.321,0.318,94.000
'0:25.680',-0.128,-0.324,0.320,94.000
'0:25.690',-0.128,-0.327,0.321,94.000
'0:25.700',-0.129,-0.331,0.322,94.000
'0:25.710',-0.129,-0.331,0.324,94.000
'0:25.720',-0.129,-0.332,0.325,94.000
'0:25.730',-0.129,-0.332,0.326,94.000
'0:25.740',-0.129,-0.333,0.328,94.000
'0:25.750',-0.128,-0.333,0.329,94.000
'0:25.760',-0.128,-0.335,0.330,94.000
'0:25.770',-0.127,-0.337,0.332,94.000
'0:25.780',-0.127,-0.339,0.333,94.000
'0:25.790',-0.126,-0.341,0.334,94.000
'0:25.800',-0.126,-0.344,0.335,94.000
'0:25.810',-0.127,-0.344,0.337,94.000
'0:25.820',-0.127,-0.345,0.338,94.000
'0:25.830',-0.128,-0.346,0.339,94.000
'0:25.840',-0.129,-0.346,0.340,94.000
'0:25.850',-0.130,-0.347,0.341,94.000
'0:25.860',-0.130,-0.347,0.342,94.000
'0:25.870',-0.129,-0.346,0.343,94.000
'0:25.880',-0.129,-0.346,0.344,94.000
'0:25.890',-0.129,-0.346,0.345,94.000
'0:25.900',-0.129,-0.345,0.346,94.000
'0:25.910',-0.129,-0.346,0.347,94.000
'0:25.920',-0.129,-0.346,0.348,94.000
'0:25.930',-0.129,-0.346,0.349,94.000
'0:25.940',-0.129,-0.347,0.350,94.000
'0:25.950',-0.128,-0.347,0.350,94.000
'0:25.960',-0.129,-0.348,0.351,94.000
'0:25.970',-0.130,-0.348,0.352,94.000
'0:25.980',-0.131,-0.348,0.353,94.000
'0:25.990',-0.132,-0.348,0.354,94.000
'0:26.000',-0.133,-0.349,0.355,94.000
'0:26.010',-0.134,-0.348,0.356,94.000
'0:26.020',-0.135,-0.347,0.356,94.000
'0:26.030',-0.136,-0.347,0.357,94.000
'0:26.040',-0.136,-0.346,0.358,94.000
'0:26.050',-0.137,-0.346,0.359,94.000
'0:26.060',-0.138,-0.344,0.359,94.000
'0:26.070',-0.139,-0.343,0.359,94.000
'0:26.080',-0.140,-0.342,0.360,94.000
'0:26.090',-0.140,-0.341,0.360,94.000
'0:26.100',-0.141,-0.340,0.360,94.000
'0:26.110',-0.141,-0.341,0.360,94.000
'0:26.120',-0.140,-0.342,0.359,94.000
'0:26.130',-0.140,-0.344,0.359,94.000
'0:26.140',-0.140,-0.345,0.358,94.000
'0:26.150',-0.140,-0.346,0.358,94.000
'0:26.160',-0.140,-0.348,0.356,94.000
'0:26.170',-0.140,-0.350,0.355,94.000
'0:26.180',-0.140,-0.353,0.353,94.000
'0:26.190',-0.140,-0.355,0.351,94.000
'0:26.200',-0.141,-0.357,0.350,94.000
'0:26.210',-0.140,-0.356,0.347,94.000
'0:26.220',-0.139,-0.355,0.345,94.000
'0:26.230',-0.139,-0.353,0.342,94.000
'0:26.240',-0.138,-0.352,0.340,94.000
'0:26.250',-0.137,-0.351,0.337,94.000
'0:26.260',-0.136,-0.349,0.334,94.000
'0:26.270',-0.134,-0.348,0.330,94.000
'0:26.280',-0.133,-0.346,0.327,94.000
'0:26.290',-0.132,-0.344,0.323,94.000
'0:26.300',-0.130,-0.342,0.320,94.000
'0:26.310',-0.130,-0.341,0.316,94.000
'0:26.320',-0.130,-0.340,0.312,94.000
'0:26.330',-0.131,-0.339,0.308,94.000
'0:26.340',-0.131,-0.338,0.304,94.000
'0:26.350',-0.131,-0.337,0.300,94.000
'0:26.360',-0.130,-0.335,0.296,94.000
'0:26.370',-0.130,-0.334,0.292,94.000
'0:26.380',-0.129,-0.332,0.288,94.000
'0:26.390',-0.128,-0.331,0.283,94.000
'0:26.400',-0.128,-0.329,0.279,94.000
'0:26.410',-0.127,-0.329,0.275,94.000
'0:26.420',-0.126,-0.328,0.271,94.000
'0:26.430',-0.125,-0.327,0.267,94.000
'0:26.440',-0.124,-0.326,0.263,94.000
'0:26.450',-0.123,-0.326,0.260,94.000
'0:26.460',-0.122,-0.324,0.255,94.000
'0:26.470',-0.121,-0.322,0.251,94.000
'0:26.480',-0.120,-0.321,0.247,94.000
'0:26.490',-0.119,-0.319,0.243,94.000
'0:26.500',-0.118,-0.317,0.239,94.000
'0:26.510',-0.116,-0.314,0.234,94.000
'0:26.520',-0.115,-0.310,0.230,94.000
'0:26.530',-0.114,-0.307,0.226,94.000
'0:26.540',-0.113,-0.303,0.222,94.000
'0:26.550',-0.112,-0.300,0.217,94.000
'0:26.560',-0.112,-0.296,0.213,94.000
'0:26.570',-0.111,-0.293,0.209,94.000
'0:26.580',-0.111,-0.289,0.205,94.000
'0:26.590',-0.110,-0.286,0.201,94.000
'0:26.600',-0.110,-0.282,0.197,94.000
'0:26.610',-0.109,-0.280,0.193,94.000
'0:26.620',-0.108,-0.277,0.188,94.000
'0:26.630',-0.107,-0.275,0.184,94.000
'0:26.640',-0.106,-0.272,0.180,94.000
'0:26.650',-0.105,-0.270,0.176,94.000
'0:26.660',-0.104,-0.266,0.172,94.000
'0:26.670',-0.103,-0.263,0.168,94.000
'0:26.680',-0.102,-0.259,0.163,94.000
'0:26.690',-0.101,-0.256,0.159,94.000
'0:26.700',-0.100,-0.252,0.155,94.000
'0:26.710',-0.099,-0.247,0.151,94.000
'0:26.720',-0.099,-0.242,0.147,94.000
'0:26.730',-0.098,-0.237,0.143,94.000
'0:26.740',-0.098,-0.231,0.138,94.000
'0:26.750',-0.097,-0.226,0.134,94.000
'0:26.760',-0.097,-0.219,0.130,94.000
'0:26.770',-0.097,-0.213,0.126,94.000
'0:26.780',-0.097,-0.206,0.122,94.000
'0:26.790',-0.098,-0.199,0.118,94.000
'0:26.800',-0.098,-0.193,0.113,94.000
'0:26.810',-0.097,-0.182,0.109,94.000
'0:26.820',-0.097,-0.172,0.105,94.000
'0:26.830',-0.097,-0.161,0.102,94.000
'0:26.840',-0.096,-0.151,0.098,94.000
'0:26.850',-0.096,-0.141,0.094,94.000
'0:26.860',-0.095,-0.137,0.089,94.000
'0:26.870',-0.095,-0.132,0.085,94.000
'0:26.880',-0.095,-0.128,0.081,94.000
'0:26.890',-0.094,-0.124,0.077,94.000
'0:26.900',-0.094,-0.120,0.072,94.000
'0:26.910',-0.094,-0.121,0.068,94.000
'0:26.920',-0.093,-0.121,0.064,94.000
'0:26.930',-0.092,-0.121,0.059,94.000
'0:26.940',-0.092,-0.122,0.055,94.000
'0:26.950',-0.091,-0.123,0.051,94.000
'0:26.960',-0.090,-0.117,0.046,94.000
'0:26.970',-0.088,-0.112,0.042,94.000
'0:26.980',-0.086,-0.107,0.038,94.000
'0:26.990',-0.084,-0.102,0.034,94.000
'0:27.000',-0.083,-0.097,0.029,94.000
'0:27.010',-0.082,-0.094,0.025,94.000
'0:27.020',-0.081,-0.091,0.020,94.000
'0:27.030',-0.080,-0.089,0.016,94.000
'0:27.040',-0.080,-0.086,0.011,94.000
'0:27.050',-0.079,-0.083,0.007,94.000
'0:27.060',-0.079,-0.082,0.002,94.000
'0:27.070',-0.079,-0.081,-0.002,94.000
'0:27.080',-0.079,-0.080,-0.006,94.000
'0:27.090',-0.079,-0.078,-0.011,94.000
'0:27.100',-0.080,-0.077,-0.015,94.000
'0:27.110',-0.078,-0.075,-0.020,94.000
'0:27.120',-0.077,-0.072,-0.025,94.000
'0:27.130',-0.076,-0.069,-0.029,94.000
'0:27.140',-0.075,-0.067,-0.034,94.000
'0:27.150',-0.074,-0.064,-0.038,94.000
'0:27.160',-0.073,-0.062,-0.043,94.000
'0:27.170',-0.072,-0.060,-0.047,94.000
'0:27.180',-0.071,-0.058,-0.052,94.000
'0:27.190',-0.070,-0.056,-0.056,94.000
'0:27.200',-0.070,-0.054,-0.061,94.000
'0:27.210',-0.069,-0.052,-0.065,94.000
'0:27.220',-0.069,-0.050,-0.069,94.000
'0:27.230',-0.068,-0.048,-0.074,94.000
'0:27.240',-0.067,-0.046,-0.078,94.000
'0:27.250',-0.067,-0.044,-0.082,94.000
'0:27.260',-0.066,-0.042,-0.087,94.000
'0:27.270',-0.066,-0.041,-0.091,94.000
'0:27.280',-0.065,-0.040,-0.095,94.000
'0:27.290',-0.065,-0.038,-0.100,94.000
'0:27.300',-0.064,-0.037,-0.104,94.000
'0:27.310',-0.063,-0.035,-0.108,94.000
'0:27.320',-0.063,-0.033,-0.113,94.000
'0:27.330',-0.062,-0.031,-0.117,94.000
'0:27.340',-0.061,-0.029,-0.121,94.000
'0:27.350',-0.060,-0.027,-0.125,94.000
'0:27.360',-0.059,-0.025,-0.130,94.000
'0:27.370',-0.058,-0.022,-0.134,94.000
'0:27.380',-0.057,-0.020,-0.138,94.000
'0:27.390',-0.056,-0.018,-0.143,94.000
'0:27.400',-0.055,-0.016,-0.147,94.000
'0:27.410',-0.054,-0.013,-0.151,94.000
'0:27.420',-0.054,-0.011,-0.155,94.000
'0:27.430',-0.053,-0.008,-0.160,94.000
'0:27.440',-0.052,-0.006,-0.164,94.000
'0:27.450',-0.052,-0.004,-0.168,94.000
'0:27.460',-0.051,-0.002,-0.172,94.000
'0:27.470',-0.050,0.000,-0.176,94.000
'0:27.480',-0.050,0.002,-0.180,94.000
'0:27.490',-0.049,0.004,-0.184,94.000
'0:27.500',-0.048,0.006,-0.188,94.000
'0:27.510',-0.049,0.008,-0.192,94.000
'0:27.520',-0.049,0.010,-0.196,94.000
'0:27.530',-0.049,0.012,-0.200,94.000
'0:27.540',-0.049,0.014,-0.204,94.000
'0:27.550',-0.050,0.016,-0.208,94.000
'0:27.560',-0.049,0.019,-0.212,94.000
'0:27.570',-0.049,0.022,-0.216,94.000
'0:27.580',-0.049,0.025,-0.220,94.000
'0:27.590',-0.048,0.029,-0.224,94.000
'0:27.600',-0.048,0.032,-0.228,94.000
'0:27.610',-0.047,0.033,-0.231,94.000
'0:27.620',-0.046,0.035,-0.235,94.000
'0:27.630',-0.045,0.036,-0.239,94.000
'0:27.640',-0.044,0.038,-0.242,94.000
'0:27.650',-0.043,0.039,-0.246,94.000
'0:27.660',-0.043,0.039,-0.250,94.000
'0:27.670',-0.042,0.039,-0.253,94.000
'0:27.680',-0.042,0.038,-0.257,94.000
'0:27.690',-0.042,0.038,-0.260,94.000
'0:27.700',-0.041,0.038,-0.264,94.000
'0:27.710',-0.041,0.039,-0.267,94.000
'0:27.720',-0.042,0.041,-0.270,94.000
'0:27.730',-0.042,0.042,-0.274,94.000
'0:27.740',-0.042,0.044,-0.277,94.000
'0:27.750',-0.042,0.046,-0.281,94.000
'0:27.760',-0.042,0.046,-0.283,94.000
'0:27.770',-0.042,0.047,-0.286,94.000
'0:27.780',-0.042,0.048,-0.289,94.000
'0:27.790',-0.042,0.049,-0.292,94.000
'0:27.800',-0.042,0.050,-0.295,94.000
'0:27.810',-0.042,0.049,-0.298,94.000
'0:27.820',-0.041,0.049,-0.300,94.000
'0:27.830',-0.040,0.049,-0.303,94.000
'0:27.840',-0.040,0.048,-0.306,94.000
'0:27.850',-0.039,0.048,-0.308,94.000
'0:27.860',-0.038,0.048,-0.310,94.000
'0:27.870',-0.038,0.048,-0.312,94.000
'0:27.880',-0.038,0.048,-0.314,94.000
'0:27.890',-0.037,0.048,-0.316,94.000
'0:27.900',-0.037,0.048,-0.318,94.000
'0:27.910',-0.037,0.047,-0.319,94.000
'0:27.920',-0.037,0.046,-0.320,94.000
'0:27.930',-0.037,0.045,-0.320,94.000
'0:27.940',-0.036,0.044,-0.321,94.000
'0:27.950',-0.036,0.043,-0.322,94.000
'0:27.960',-0.037,0.041,-0.320,94.000
'0:27.970',-0.037,0.039,-0.319,94.000
'0:27.980',-0.037,0.038,-0.318,94.000
'0:27.990',-0.038,0.036,-0.317,94.000
'0:28.000',-0.038,0.035,-0.316,94.000
'0:28.010',-0.037,0.033,-0.313,94.000
'0:28.020',-0.036,0.032,-0.310,94.000
'0:28.030',-0.035,0.031,-0.307,94.000
'0:28.040',-0.034,0.029,-0.304,94.000
'0:28.050',-0.033,0.028,-0.301,94.000
'0:28.060',-0.032,0.026,-0.297,94.000
'0:28.070',-0.031,0.024,-0.292,94.000
'0:28.080',-0.031,0.022,-0.288,94.000
'0:28.090',-0.030,0.020,-0.283,94.000
'0:28.100',-0.030,0.018,-0.279,94.000
'0:28.110',-0.032,0.014,-0.273,94.000
'0:28.120',-0.034,0.011,-0.267,94.000
'0:28.130',-0.036,0.008,-0.261,94.000
'0:28.140',-0.037,0.005,-0.256,94.000
'0:28.150',-0.040,0.002,-0.250,94.000
'0:28.160',-0.041,-0.000,-0.243,94.000
'0:28.170',-0.042,-0.002,-0.237,94.000
'0:28.180',-0.043,-0.005,-0.230,94.000
'0:28.190',-0.044,-0.007,-0.224,94.000
'0:28.200',-0.045,-0.009,-0.217,94.000
'0:28.210',-0.045,-0.011,-0.210,94.000
'0:28.220',-0.046,-0.012,-0.203,94.000
'0:28.230',-0.047,-0.014,-0.196,94.000
'0:28.240',-0.047,-0.015,-0.189,94.000
'0:28.250',-0.048,-0.017,-0.182,94.000
'0:28.260',-0.050,-0.020,-0.175,94.000
'0:28.270',-0.052,-0.022,-0.167,94.000
'0:28.280',-0.054,-0.025,-0.160,94.000
'0:28.290',-0.056,-0.028,-0.153,94.000
'0:28.300',-0.058,-0.031,-0.145,94.000
'0:28.310',-0.060,-0.034,-0.138,94.000
'0:28.320',-0.062,-0.037,-0.130,94.000
'0:28.330',-0.065,-0.040,-0.123,94.000
'0:28.340',-0.067,-0.042,-0.115,94.000
'0:28.350',-0.069,-0.045,-0.108,94.000
'0:28.360',-0.070,-0.048,-0.100,94.000
'0:28.370',-0.072,-0.050,-0.093,94.000
'0:28.380',-0.073,-0.052,-0.086,94.000
'0:28.390',-0.075,-0.054,-0.078,94.000
'0:28.400',-0.076,-0.056,-0.071,94.000
'0:28.410',-0.077,-0.058,-0.064,94.000
'0:28.420',-0.078,-0.060,-0.057,94.000
'0:28.430',-0.079,-0.063,-0.050,94.000
'0:28.440',-0.079,-0.065,-0.044,94.000
'0:28.450',-0.080,-0.067,-0.037,94.000
'0:28.460',-0.081,-0.069,-0.030,94.000
'0:28.470',-0.081,-0.071,-0.024,94.000
'0:28.480',-0.082,-0.074,-0.018,94.000
'0:28.490',-0.083,-0.076,-0.011,94.000
'0:28.500',-0.084,-0.078,-0.005,94.000
'0:28.510',-0.085,-0.080,0.001,94.000
'0:28.520',-0.086,-0.082,0.007,94.000
'0:28.530',-0.087,-0.085,0.013,94.000
'0:28.540',-0.089,-0.087,0.019,94.000
'0:28.550',-0.090,-0.089,0.025,94.000
'0:28.560',-0.090,-0.090,0.031,94.000
'0:28.570',-0.090,-0.091,0.036,94.000
'0:28.580',-0.090,-0.092,0.042,94.000
'0:28.590',-0.089,-0.093,0.047,94.000
'0:28.600',-0.089,-0.094,0.053,94.000
'0:28.610',-0.090,-0.095,0.058,94.000
'0:28.620',-0.090,-0.096,0.064,94.000
'0:28.630',-0.091,-0.097,0.069,94.000
'0:28.640',-0.091,-0.098,0.074,94.000
'0:28.650',-0.092,-0.098,0.080,94.000
'0:28.660',-0.093,-0.101,0.085,94.000
'0:28.670',-0.094,-0.104,0.090,94.000
'0:28.680',-0.095,-0.107,0.095,94.000
'0:28.690',-0.096,-0.109,0.100,94.000
'0:28.700',-0.097,-0.112,0.105,94.000
'0:28.710',-0.097,-0.114,0.109,94.000
'0:28.720',-0.097,-0.117,0.114,94.000
'0:28.730',-0.098,-0.119,0.119,94.000
'0:28.740',-0.098,-0.121,0.124,94.000
'0:28.750',-0.098,-0.123,0.128,94.000
'0:28.760',-0.099,-0.126,0.133,94.000
'0:28.770',-0.099,-0.129,0.137,94.000
'0:28.780',-0.099,-0.131,0.142,94.000
'0:28.790',-0.099,-0.134,0.146,94.000
'0:28.800',-0.099,-0.137,0.151,94.000
'0:28.810',-0.100,-0.142,0.155,94.000
'0:28.820',-0.100,-0.147,0.159,94.000
'0:28.830',-0.101,-0.153,0.163,94.000
'0:28.840',-0.101,-0.158,0.167,94.000
'0:28.850',-0.101,-0.163,0.171,94.000
'0:28.860',-0.103,-0.168,0.175,94.000
'0:28.870',-0.104,-0.173,0.179,94.000
'0:28.880',-0.106,-0.178,0.183,94.000
'0:28.890',-0.107,-0.183,0.186,94.000
'0:28.900',-0.109,-0.188,0.190,94.000
'0:28.910',-0.109,-0.193,0.194,94.000
'0:28.920',-0.110,-0.197,0.197,94.000
'0:28.930',-0.110,-0.201,0.200,94.000
'0:28.940',-0.111,-0.205,0.204,94.000
'0:28.950',-0.111,-0.209,0.207,94.000
'0:28.960',-0.111,-0.211,0.210,94.000
'0:28.970',-0.112,-0.213,0.213,94.000
'0:28.980',-0.112,-0.215,0.217,94.000
'0:28.990',-0.113,-0.217,0.220,94.000
'0:29.000',-0.113,-0.219,0.223,94.000
'0:29.010',-0.114,-0.224,0.226,94.000
'0:29.020',-0.114,-0.229,0.228,94.000
'0:29.030',-0.115,-0.235,0.231,94.000
'0:29.040',-0.116,-0.240,0.234,94.000
'0:29.050',-0.116,-0.245,0.237,94.000
'0:29.060',-0.117,-0.249,0.239,94.000
'0:29.070',-0.118,-0.253,0.242,94.000
'0:29.080',-0.119,-0.257,0.245,94.000
'0:29.090',-0.120,-0.261,0.247,94.000
'0:29.100',-0.121,-0.265,0.250,94.000
'0:29.110',-0.122,-0.264,0.252,94.000
'0:29.120',-0.123,-0.263,0.254,94.000
'0:29.130',-0.124,-0.262,0.257,94.000
'0:29.140',-0.126,-0.261,0.259,94.000
'0:29.150',-0.127,-0.260,0.261,94.000
'0:29.160',-0.127,-0.262,0.263,94.000
'0:29.170',-0.128,-0.265,0.264,94.000
'0:29.180',-0.128,-0.267,0.266,94.000
'0:29.190',-0.128,-0.269,0.268,94.000
'0:29.200',-0.129,-0.272,0.269,94.000
'0:29.210',-0.129,-0.276,0.271,94.000
'0:29.220',-0.130,-0.280,0.272,94.000
'0:29.230',-0.130,-0.283,0.274,94.000
'0:29.240',-0.130,-0.287,0.275,94.000
'0:29.250',-0.131,-0.291,0.277,94.000
'0:29.260',-0.130,-0.294,0.278,94.000
'0:29.270',-0.130,-0.297,0.279,94.000
'0:29.280',-0.129,-0.300,0.280,94.000
'0:29.290',-0.129,-0.303,0.281,94.000
'0:29.300',-0.128,-0.306,0.282,94.000
'0:29.310',-0.128,-0.306,0.283,94.000
'0:29.320',-0.127,-0.306,0.284,94.000
'0:29.330',-0.127,-0.306,0.285,94.000
'0:29.340',-0.126,-0.306,0.286,94.000
'0:29.350',-0.126,-0.306,0.286,94.000
'0:29.360',-0.126,-0.307,0.287,94.000
'0:29.370',-0.127,-0.308,0.288,94.000
'0:29.380',-0.127,-0.309,0.289,94.000
'0:29.390',-0.127,-0.310,0.290,94.000
'0:29.400',-0.128,-0.311,0.291,94.000
'0:29.410',-0.128,-0.313,0.292,94.000
'0:29.420',-0.128,-0.314,0.292,94.000
'0:29.430',-0.128,-0.316,0.293,94.000
'0:29.440',-0.128,-0.317,0.294,94.000
'0:29.450',-0.128,-0.318,0.295,94.000
'0:29.460',-0.128,-0.319,0.296,94.000
'0:29.470',-0.128,-0.319,0.297,94.000
'0:29.480',-0.128,-0.319,0.298,94.000
'0:29.490',-0.128,-0.319,0.299,94.000
'0:29.500',-0.129,-0.319,0.300,94.000
'0:29.510',-0.128,-0.320,0.301,94.000
'0:29.520',-0.128,-0.322,0.302,94.000
'0:29.530',-0.127,-0.323,0.303,94.000
'0:29.540',-0.127,-0.324,0.304,94.000
'0:29.550',-0.127,-0.325,0.305,94.000
'0:29.560',-0.126,-0.325,0.306,94.000
'0:29.570',-0.126,-0.324,0.307,94.000
'0:29.580',-0.126,-0.324,0.307,94.000
'0:29.590',-0.126,-0.323,0.308,94.000
'0:29.600',-0.125,-0.323,0.309,94.000
'0:29.610',-0.126,-0.323,0.310,94.000
'0:29.620',-0.127,-0.323,0.310,94.000
'0:29.630',-0.128,-0.323,0.311,94.000
'0:29.640',-0.129,-0.323,0.312,94.000
'0:29.650',-0.129,-0.323,0.312,94.000
'0:29.660',-0.129,-0.323,0.313,94.000
'0:29.670',-0.129,-0.323,0.314,94.000
'0:29.680',-0.129,-0.323,0.314,94.000
'0:29.690',-0.128,-0.324,0.315,94.000
'0:29.700',-0.128,-0.324,0.316,94.000
'0:29.710',-0.128,-0.322,0.316,94.000
'0:29.720',-0.127,-0.320,0.316,94.000
'0:29.730',-0.127,-0.318,0.317,94.000
'0:29.740',-0.127,-0.316,0.317,94.000
'0:29.750',-0.127,-0.315,0.318,94.000
'0:29.760',-0.127,-0.313,0.318,94.000
'0:29.770',-0.128,-0.311,0.318,94.000
'0:29.780',-0.128,-0.309,0.318,94.000
'0:29.790',-0.129,-0.307,0.318,94.000
'0:29.800',-0.129,-0.305,0.318,94.000
'0:29.810',-0.130,-0.303,0.317,94.000
'0:29.820',-0.131,-0.300,0.316,94.000
'0:29.830',-0.131,-0.298,0.316,94.000
'0:29.840',-0.132,-0.296,0.315,94.000
'0:29.850',-0.133,-0.293,0.315,94.000
'0:29.860',-0.133,-0.291,0.313,94.000
'0:29.870',-0.134,-0.289,0.311,94.000
'0:29.880',-0.134,-0.286,0.309,94.000
'0:29.890',-0.135,-0.284,0.307,94.000
'0:29.900',-0.135,-0.282,0.305,94.000
'0:29.910',-0.134,-0.281,0.301,94.000
'0:29.920',-0.133,-0.280,0.298,94.000
'0:29.930',-0.131,-0.280,0.294,94.000
'0:29.940',-0.130,-0.279,0.291,94.000
'0:29.950',-0.129,-0.278,0.287,94.000
'0:29.960',-0.129,-0.278,0.283,93.000
'0:29.970',-0.128,-0.279,0.278,93.000
'0:29.980',-0.128,-0.279,0.273,93.000
'0:29.990',-0.127,-0.280,0.269,93.000
'0:30.000',-0.127,-0.280,0.264,93.000
'0:30.010',-0.126,-0.278,0.259,93.000
'0:30.020',-0.126,-0.275,0.254,93.000
'0:30.030',-0.126,-0.273,0.249,93.000
'0:30.040',-0.125,-0.270,0.243,93.000
'0:30.050',-0.125,-0.268,0.238,93.000
'0:30.060',-0.123,-0.263,0.233,93.000
'0:30.070',-0.122,-0.259,0.227,93.000
'0:30.080',-0.121,-0.254,0.222,93.000
'0:30.090',-0.120,-0.249,0.216,93.000
'0:30.100',-0.118,-0.244,0.211,93.000
'0:30.110',-0.118,-0.242,0.205,93.000
'0:30.120',-0.117,-0.239,0.200,93.000
'0:30.130',-0.117,-0.237,0.194,93.000
'0:30.140',-0.116,-0.235,0.189,93.000
'0:30.150',-0.115,-0.232,0.184,93.000
'0:30.160',-0.114,-0.226,0.178,93.000
'0:30.170',-0.113,-0.221,0.173,93.000
'0:30.180',-0.112,-0.215,0.168,93.000
'0:30.190',-0.111,-0.209,0.163,93.000
'0:30.200',-0.110,-0.204,0.158,93.000
'0:30.210',-0.109,-0.196,0.153,93.000
'0:30.220',-0.108,-0.188,0.148,93.000
'0:30.230',-0.106,-0.181,0.143,93.000
'0:30.240',-0.105,-0.173,0.138,93.000
'0:30.250',-0.104,-0.165,0.133,93.000
'0:30.260',-0.103,-0.161,0.128,93.000
'0:30.270',-0.102,-0.156,0.123,93.000
'0:30.280',-0.101,-0.152,0.118,93.000
'0:30.290',-0.100,-0.148,0.114,93.000
'0:30.300',-0.099,-0.143,0.109,93.000
'0:30.310',-0.098,-0.138,0.104,93.000
'0:30.320',-0.097,-0.133,0.099,93.000
'0:30.330',-0.097,-0.128,0.095,93.000
'0:30.340',-0.096,-0.124,0.090,93.000
'0:30.350',-0.095,-0.119,0.085,93.000
'0:30.360',-0.094,-0.116,0.081,93.000
'0:30.370',-0.093,-0.113,0.076,93.000
'0:30.380',-0.092,-0.110,0.071,93.000
'0:30.390',-0.091,-0.107,0.067,93.000
'0:30.400',-0.090,-0.104,0.062,93.000
'0:30.410',-0.090,-0.103,0.058,93.000
'0:30.420',-0.089,-0.101,0.053,93.000
'0:30.430',-0.089,-0.100,0.048,93.000
'0:30.440',-0.088,-0.099,0.043,93.000
'0:30.450',-0.088,-0.097,0.039,93.000
'0:30.460',-0.087,-0.095,0.034,93.000
'0:30.470',-0.086,-0.093,0.029,93.000
'0:30.480',-0.085,-0.091,0.025,93.000
'0:30.490',-0.085,-0.088,0.020,93.000
'0:30.500',-0.084,-0.086,0.016,93.000
'0:30.510',-0.083,-0.085,0.011,93.000
'0:30.520',-0.082,-0.084,0.006,93.000
'0:30.530',-0.081,-0.083,0.002,93.000
'0:30.540',-0.080,-0.081,-0.003,93.000
'0:30.550',-0.079,-0.080,-0.007,93.000
'0:30.560',-0.079,-0.079,-0.012,93.000
'0:30.570',-0.079,-0.078,-0.017,93.000
'0:30.580',-0.080,-0.077,-0.021,93.000
'0:30.590',-0.080,-0.077,-0.026,93.000
'0:30.600',-0.080,-0.076,-0.031,93.000
'0:30.610',-0.080,-0.075,-0.035,93.000
'0:30.620',-0.081,-0.074,-0.040,93.000
'0:30.630',-0.081,-0.073,-0.044,93.000
'0:30.640',-0.081,-0.072,-0.049,93.000
'0:30.650',-0.081,-0.071,-0.053,93.000
'0:30.660',-0.080,-0.069,-0.057,93.000
'0:30.670',-0.080,-0.068,-0.062,93.000
'0:30.680',-0.079,-0.066,-0.066,93.000
'0:30.690',-0.078,-0.065,-0.071,93.000
'0:30.700',-0.078,-0.063,-0.075,93.000
'0:30.710',-0.077,-0.062,-0.080,93.000
'0:30.720',-0.076,-0.061,-0.084,93.000
'0:30.730',-0.075,-0.059,-0.089,93.000
'0:30.740',-0.074,-0.058,-0.093,93.000
'0:30.750',-0.073,-0.057,-0.098,93.000
'0:30.760',-0.072,-0.056,-0.103,93.000
'0:30.770',-0.071,-0.055,-0.107,93.000
'0:30.780',-0.071,-0.054,-0.112,93.000
'0:30.790',-0.070,-0.054,-0.116,93.000
'0:30.800',-0.069,-0.053,-0.121,93.000
'0:30.810',-0.069,-0.052,-0.125,93.000
'0:30.820',-0.069,-0.050,-0.129,93.000
'0:30.830',-0.069,-0.049,-0.134,93.000
'0:30.840',-0.069,-0.048,-0.138,93.000
'0:30.850',-0.069,-0.046,-0.142,93.000
'0:30.860',-0.068,-0.044,-0.147,93.000
'0:30.870',-0.067,-0.041,-0.151,93.000
'0:30.880',-0.066,-0.039,-0.156,93.000
'0:30.890',-0.065,-0.037,-0.160,93.000
'0:30.900',-0.064,-0.034,-0.164,93.000
'0:30.910',-0.063,-0.032,-0.169,93.000
'0:30.920',-0.062,-0.030,-0.173,93.000
'0:30.930',-0.061,-0.028,-0.177,93.000
'0:30.940',-0.061,-0.026,-0.181,93.000
'0:30.950',-0.060,-0.024,-0.186,93.000
'0:30.960',-0.060,-0.023,-0.190,93.000
'0:30.970',-0.060,-0.022,-0.194,93.000
'0:30.980',-0.060,-0.020,-0.198,93.000
'0:30.990',-0.060,-0.019,-0.202,93.000
'0:31.000',-0.060,-0.018,-0.206,93.000
'0:31.010',-0.060,-0.016,-0.210,93.000
'0:31.020',-0.060,-0.014,-0.214,93.000
'0:31.030',-0.060,-0.013,-0.218,93.000
'0:31.040',-0.059,-0.011,-0.222,93.000
'0:31.050',-0.059,-0.009,-0.226,93.000
'0:31.060',-0.059,-0.007,-0.229,93.000
'0:31.070',-0.059,-0.006,-0.233,93.000
'0:31.080',-0.059,-0.004,-0.237,93.000
'0:31.090',-0.059,-0.002,-0.241,93.000
'0:31.100',-0.059,-0.001,-0.244,93.000
'0:31.110',-0.058,0.001,-0.248,93.000
'0:31.120',-0.057,0.002,-0.252,93.000
'0:31.130',-0.056,0.004,-0.255,93.000
'0:31.140',-0.056,0.005,-0.259,93.000
'0:31.150',-0.055,0.007,-0.263,93.000
'0:31.160',-0.054,0.008,-0.266,93.000
'0:31.170',-0.053,0.010,-0.269,93.000
'0:31.180',-0.052,0.011,-0.273,93.000
'0:31.190',-0.051,0.012,-0.276,93.000
'0:31.200',-0.050,0.014,-0.279,93.000
'0:31.210',-0.049,0.016,-0.282,93.000
'0:31.220',-0.049,0.017,-0.285,93.000
'0:31.230',-0.048,0.019,-0.288,93.000
'0:31.240',-0.048,0.021,-0.291,93.000
'0:31.250',-0.048,0.023,-0.294,93.000
'0:31.260',-0.047,0.024,-0.297,93.000
'0:31.270',-0.047,0.025,-0.300,93.000
'0:31.280',-0.047,0.026,-0.303,93.000
'0:31.290',-0.047,0.027,-0.305,93.000
'0:31.300',-0.047,0.028,-0.308,93.000
'0:31.310',-0.047,0.028,-0.311,93.000
'0:31.320',-0.048,0.027,-0.313,93.000
'0:31.330',-0.048,0.026,-0.315,93.000
'0:31.340',-0.049,0.026,-0.317,93.000
