'Elapsed time','ECG','Resp C','Resp A','Resp N','SpO2'
'hh:mm:ss.mmm','mV','mV','mV','mV','mV'
'0:00.000',0.040,-0.139,-0.634,-0.064,97.000
'0:00.010',-0.005,-0.139,-0.636,-0.065,97.000
'0:00.020',0.015,-0.138,-0.637,-0.065,97.000
'0:00.030',-0.015,-0.138,-0.638,-0.066,97.000
'0:00.040',-0.025,-0.137,-0.639,-0.066,97.000
'0:00.050',-0.055,-0.137,-0.641,-0.066,97.000
'0:00.060',-0.010,-0.137,-0.638,-0.067,97.000
'0:00.070',-0.015,-0.137,-0.636,-0.067,97.000
'0:00.080',-0.020,-0.138,-0.633,-0.067,97.000
'0:00.090',0.015,-0.138,-0.631,-0.067,97.000
'0:00.100',-0.035,-0.138,-0.628,-0.067,97.000
'0:00.110',-0.015,-0.138,-0.627,-0.067,97.000
'0:00.120',0.005,-0.137,-0.626,-0.067,97.000
'0:00.130',0.020,-0.137,-0.624,-0.068,97.000
'0:00.140',-0.010,-0.137,-0.623,-0.068,97.000
'0:00.150',0.030,-0.137,-0.622,-0.068,97.000
'0:00.160',-0.015,-0.137,-0.624,-0.068,97.000
'0:00.170',-0.005,-0.137,-0.625,-0.068,97.000
'0:00.180',-0.015,-0.137,-0.627,-0.068,97.000
'0:00.190',0.000,-0.137,-0.629,-0.068,97.000
'0:00.200',-0.005,-0.137,-0.631,-0.068,97.000
'0:00.210',0.025,-0.137,-0.630,-0.068,97.000
'0:00.220',-0.020,-0.138,-0.629,-0.067,97.000
'0:00.230',-0.010,-0.138,-0.629,-0.067,97.000
'0:00.240',0.025,-0.139,-0.628,-0.067,97.000
'0:00.250',0.015,-0.139,-0.628,-0.067,97.000
'0:00.260',0.000,-0.138,-0.625,-0.067,97.000
'0:00.270',-0.005,-0.137,-0.622,-0.067,97.000
'0:00.280',-0.020,-0.136,-0.619,-0.067,97.000
'0:00.290',0.000,-0.135,-0.616,-0.066,97.000
'0:00.300',0.000,-0.134,-0.613,-0.066,97.000
'0:00.310',0.010,-0.134,-0.610,-0.066,97.000
'0:00.320',0.000,-0.134,-0.608,-0.066,97.000
'0:00.330',-0.010,-0.135,-0.606,-0.066,97.000
'0:00.340',-0.010,-0.135,-0.603,-0.066,97.000
'0:00.350',-0.020,-0.135,-0.601,-0.065,97.000
'0:00.360',-0.030,-0.137,-0.601,-0.065,97.000
'0:00.370',0.005,-0.138,-0.601,-0.065,97.000
'0:00.380',-0.015,-0.139,-0.600,-0.065,97.000
'0:00.390',0.000,-0.140,-0.600,-0.065,97.000
'0:00.400',-0.005,-0.141,-0.600,-0.064,97.000
'0:00.410',-0.045,-0.141,-0.600,-0.064,97.000
'0:00.420',-0.015,-0.140,-0.599,-0.064,97.000
'0:00.430',-0.020,-0.140,-0.599,-0.064,97.000
'0:00.440',-0.010,-0.140,-0.599,-0.064,97.000
'0:00.450',-0.005,-0.140,-0.598,-0.064,97.000
'0:00.460',-0.015,-0.140,-0.599,-0.064,97.000
'0:00.470',-0.040,-0.140,-0.600,-0.064,97.000
'0:00.480',-0.005,-0.140,-0.601,-0.064,97.000
'0:00.490',0.000,-0.140,-0.602,-0.064,97.000
'0:00.500',-0.010,-0.140,-0.603,-0.064,97.000
'0:00.510',-0.040,-0.140,-0.604,-0.064,97.000
'0:00.520',-0.025,-0.140,-0.606,-0.065,97.000
'0:00.530',-0.060,-0.139,-0.607,-0.065,97.000
'0:00.540',-0.020,-0.139,-0.608,-0.065,97.000
'0:00.550',-0.015,-0.139,-0.610,-0.066,97.000
'0:00.560',-0.005,-0.139,-0.613,-0.066,97.000
'0:00.570',-0.040,-0.140,-0.615,-0.067,97.000
'0:00.580',-0.025,-0.140,-0.618,-0.067,97.000
'0:00.590',-0.040,-0.140,-0.621,-0.068,97.000
'0:00.600',-0.025,-0.140,-0.623,-0.068,97.000
'0:00.610',-0.020,-0.140,-0.627,-0.069,97.000
'0:00.620',-0.035,-0.139,-0.631,-0.069,97.000
'0:00.630',-0.045,-0.138,-0.634,-0.070,97.000
'0:00.640',-0.015,-0.138,-0.638,-0.070,97.000
'0:00.650',-0.080,-0.137,-0.642,-0.071,97.000
'0:00.660',-0.010,-0.138,-0.641,-0.072,97.000
'0:00.670',0.000,-0.139,-0.641,-0.072,97.000
'0:00.680',0.050,-0.140,-0.641,-0.073,97.000
'0:00.690',0.075,-0.141,-0.640,-0.073,97.000
'0:00.700',0.150,-0.142,-0.640,-0.074,97.000
'0:00.710',0.130,-0.144,-0.643,-0.074,97.000
'0:00.720',0.105,-0.145,-0.647,-0.075,97.000
'0:00.730',-0.025,-0.146,-0.650,-0.075,97.000
'0:00.740',-0.070,-0.147,-0.654,-0.075,97.000
'0:00.750',-0.110,-0.149,-0.657,-0.076,97.000
'0:00.760',-0.055,-0.146,-0.663,-0.076,97.000
'0:00.770',-0.125,-0.144,-0.670,-0.076,97.000
'0:00.780',-0.085,-0.141,-0.677,-0.077,97.000
'0:00.790',-0.100,-0.139,-0.683,-0.077,97.000
'0:00.800',-0.050,-0.137,-0.690,-0.077,97.000
'0:00.810',-0.105,-0.135,-0.695,-0.078,97.000
'0:00.820',-0.070,-0.134,-0.701,-0.078,97.000
'0:00.830',-0.135,-0.132,-0.706,-0.078,97.000
'0:00.840',-0.065,-0.131,-0.712,-0.079,97.000
'0:00.850',-0.055,-0.129,-0.717,-0.079,97.000
'0:00.860',-0.035,-0.126,-0.720,-0.080,97.000
'0:00.870',-0.175,-0.123,-0.723,-0.080,97.000
'0:00.880',-0.440,-0.120,-0.726,-0.081,97.000
'0:00.890',-0.535,-0.117,-0.728,-0.081,97.000
'0:00.900',0.135,-0.114,-0.731,-0.082,97.000
'0:00.910',1.900,-0.110,-0.730,-0.082,97.000
'0:00.920',1.260,-0.106,-0.729,-0.082,97.000
'0:00.930',0.615,-0.102,-0.728,-0.083,97.000
'0:00.940',0.000,-0.098,-0.726,-0.083,97.000
'0:00.950',0.055,-0.094,-0.725,-0.084,97.000
'0:00.960',0.000,-0.093,-0.721,-0.084,97.000
'0:00.970',-0.060,-0.092,-0.717,-0.085,97.000
'0:00.980',-0.065,-0.090,-0.713,-0.085,97.000
'0:00.990',-0.100,-0.089,-0.709,-0.085,97.000
'0:01.000',-0.060,-0.088,-0.705,-0.086,97.000
'0:01.010',-0.100,-0.087,-0.694,-0.086,97.000
'0:01.020',-0.060,-0.086,-0.683,-0.086,97.000
'0:01.030',-0.110,-0.085,-0.672,-0.086,97.000
'0:01.040',-0.075,-0.085,-0.661,-0.087,97.000
'0:01.050',-0.130,-0.084,-0.650,-0.087,97.000
'0:01.060',-0.070,-0.083,-0.635,-0.087,97.000
'0:01.070',-0.090,-0.082,-0.621,-0.087,97.000
'0:01.080',-0.055,-0.081,-0.606,-0.088,97.000
'0:01.090',-0.095,-0.079,-0.591,-0.088,97.000
'0:01.100',-0.055,-0.078,-0.576,-0.088,97.000
'0:01.110',-0.080,-0.078,-0.566,-0.088,97.000
'0:01.120',-0.030,-0.077,-0.556,-0.088,97.000
'0:01.130',-0.070,-0.076,-0.546,-0.089,97.000
'0:01.140',-0.025,-0.076,-0.536,-0.089,97.000
'0:01.150',-0.020,-0.075,-0.526,-0.089,97.000
'0:01.160',-0.010,-0.073,-0.518,-0.089,97.000
'0:01.170',0.005,-0.071,-0.510,-0.089,97.000
'0:01.180',0.035,-0.069,-0.502,-0.089,97.000
'0:01.190',0.090,-0.067,-0.494,-0.089,97.000
'0:01.200',0.135,-0.065,-0.486,-0.090,97.000
'0:01.210',0.100,-0.064,-0.475,-0.090,97.000
'0:01.220',0.085,-0.062,-0.465,-0.090,97.000
'0:01.230',0.055,-0.060,-0.454,-0.090,97.000
'0:01.240',0.025,-0.058,-0.444,-0.090,97.000
'0:01.250',-0.015,-0.056,-0.433,-0.090,97.000
'0:01.260',-0.005,-0.056,-0.420,-0.090,97.000
'0:01.270',-0.015,-0.055,-0.407,-0.090,97.000
'0:01.280',-0.025,-0.055,-0.393,-0.090,97.000
'0:01.290',-0.045,-0.054,-0.380,-0.090,97.000
'0:01.300',-0.035,-0.054,-0.366,-0.091,97.000
'0:01.310',-0.040,-0.052,-0.337,-0.090,97.000
'0:01.320',-0.025,-0.049,-0.308,-0.090,97.000
'0:01.330',-0.050,-0.047,-0.278,-0.090,97.000
'0:01.340',-0.040,-0.045,-0.249,-0.090,97.000
'0:01.350',-0.025,-0.043,-0.220,-0.090,97.000
'0:01.360',-0.020,-0.042,-0.193,-0.090,97.000
'0:01.370',-0.025,-0.041,-0.166,-0.090,97.000
'0:01.380',-0.040,-0.040,-0.139,-0.090,97.000
'0:01.390',-0.010,-0.038,-0.112,-0.090,97.000
'0:01.400',-0.025,-0.037,-0.085,-0.090,97.000
'0:01.410',0.000,-0.037,-0.077,-0.089,97.000
'0:01.420',-0.040,-0.036,-0.069,-0.089,97.000
'0:01.430',-0.030,-0.035,-0.061,-0.089,97.000
'0:01.440',-0.020,-0.035,-0.053,-0.089,97.000
'0:01.450',-0.035,-0.034,-0.045,-0.089,97.000
'0:01.460',-0.025,-0.032,-0.039,-0.089,97.000
'0:01.470',-0.040,-0.029,-0.033,-0.089,97.000
'0:01.480',-0.040,-0.027,-0.027,-0.089,97.000
'0:01.490',-0.025,-0.025,-0.021,-0.089,97.000
'0:01.500',-0.035,-0.023,-0.015,-0.089,97.000
'0:01.510',-0.060,-0.021,-0.011,-0.089,97.000
'0:01.520',-0.005,-0.019,-0.006,-0.089,97.000
'0:01.530',-0.025,-0.017,-0.001,-0.089,97.000
'0:01.540',-0.025,-0.015,0.003,-0.089,97.000
'0:01.550',-0.050,-0.013,0.008,-0.089,97.000
'0:01.560',-0.040,-0.014,0.011,-0.089,97.000
'0:01.570',-0.045,-0.015,0.014,-0.089,97.000
'0:01.580',-0.050,-0.015,0.017,-0.089,97.000
'0:01.590',-0.015,-0.016,0.020,-0.089,97.000
'0:01.600',-0.075,-0.017,0.023,-0.089,97.000
'0:01.610',-0.035,-0.017,0.027,-0.089,97.000
'0:01.620',-0.020,-0.017,0.030,-0.089,97.000
'0:01.630',-0.030,-0.017,0.033,-0.089,97.000
'0:01.640',-0.035,-0.016,0.037,-0.090,97.000
'0:01.650',-0.050,-0.016,0.040,-0.090,97.000
'0:01.660',-0.035,-0.015,0.042,-0.090,97.000
'0:01.670',-0.055,-0.013,0.044,-0.090,97.000
'0:01.680',-0.045,-0.012,0.045,-0.091,97.000
'0:01.690',-0.045,-0.010,0.047,-0.091,97.000
'0:01.700',-0.055,-0.009,0.049,-0.091,97.000
'0:01.710',-0.035,-0.010,0.048,-0.091,97.000
'0:01.720',-0.050,-0.012,0.046,-0.092,97.000
'0:01.730',-0.015,-0.013,0.045,-0.092,97.000
'0:01.740',0.025,-0.015,0.044,-0.092,97.000
'0:01.750',0.055,-0.016,0.042,-0.092,97.000
'0:01.760',0.105,-0.017,0.038,-0.092,97.000
'0:01.770',0.185,-0.018,0.034,-0.092,97.000
'0:01.780',0.120,-0.018,0.030,-0.092,97.000
'0:01.790',0.100,-0.019,0.026,-0.092,97.000
'0:01.800',-0.005,-0.020,0.022,-0.092,97.000
'0:01.810',-0.065,-0.021,0.018,-0.092,97.000
'0:01.820',-0.105,-0.023,0.013,-0.093,97.000
'0:01.830',-0.045,-0.024,0.009,-0.093,97.000
'0:01.840',-0.125,-0.026,0.005,-0.093,97.000
'0:01.850',-0.065,-0.027,0.001,-0.093,97.000
'0:01.860',-0.145,-0.030,-0.004,-0.093,97.000
'0:01.870',-0.070,-0.033,-0.009,-0.093,97.000
'0:01.880',-0.125,-0.036,-0.014,-0.093,97.000
'0:01.890',-0.075,-0.039,-0.020,-0.093,97.000
'0:01.900',-0.135,-0.042,-0.025,-0.094,97.000
'0:01.910',-0.075,-0.045,-0.030,-0.094,97.000
'0:01.920',-0.105,-0.048,-0.035,-0.093,97.000
'0:01.930',-0.105,-0.051,-0.041,-0.093,97.000
'0:01.940',-0.250,-0.055,-0.046,-0.093,97.000
'0:01.950',-0.400,-0.058,-0.052,-0.093,97.000
'0:01.960',-0.530,-0.061,-0.057,-0.093,97.000
'0:01.970',0.490,-0.065,-0.063,-0.093,97.000
'0:01.980',1.855,-0.069,-0.069,-0.092,97.000
'0:01.990',1.020,-0.072,-0.074,-0.092,97.000
'0:02.000',0.415,-0.076,-0.080,-0.091,97.000
'0:02.010',0.015,-0.079,-0.085,-0.091,97.000
'0:02.020',0.065,-0.081,-0.089,-0.091,97.000
'0:02.030',-0.030,-0.084,-0.094,-0.091,97.000
'0:02.040',-0.085,-0.087,-0.099,-0.090,97.000
'0:02.050',-0.095,-0.089,-0.103,-0.090,97.000
'0:02.060',-0.095,-0.094,-0.108,-0.090,97.000
'0:02.070',-0.105,-0.098,-0.113,-0.089,97.000
'0:02.080',-0.090,-0.103,-0.118,-0.089,97.000
'0:02.090',-0.115,-0.107,-0.123,-0.089,97.000
'0:02.100',-0.075,-0.112,-0.128,-0.088,97.000
'0:02.110',-0.085,-0.116,-0.150,-0.087,97.000
'0:02.120',-0.085,-0.121,-0.172,-0.087,97.000
'0:02.130',-0.070,-0.126,-0.194,-0.086,97.000
'0:02.140',-0.055,-0.130,-0.216,-0.085,97.000
'0:02.150',-0.050,-0.135,-0.239,-0.085,97.000
'0:02.160',-0.045,-0.136,-0.264,-0.084,97.000
'0:02.170',-0.040,-0.136,-0.289,-0.084,97.000
'0:02.180',-0.040,-0.137,-0.314,-0.083,97.000
'0:02.190',0.005,-0.138,-0.339,-0.083,97.000
'0:02.200',-0.010,-0.138,-0.364,-0.083,97.000
'0:02.210',0.010,-0.138,-0.371,-0.082,97.000
'0:02.220',0.020,-0.139,-0.378,-0.081,97.000
'0:02.230',0.060,-0.139,-0.385,-0.081,97.000
'0:02.240',0.090,-0.139,-0.391,-0.080,97.000
'0:02.250',0.135,-0.140,-0.398,-0.080,97.000
'0:02.260',0.130,-0.142,-0.400,-0.079,97.000
'0:02.270',0.200,-0.144,-0.402,-0.079,97.000
'0:02.280',0.115,-0.146,-0.403,-0.078,97.000
'0:02.290',0.140,-0.148,-0.405,-0.078,97.000
'0:02.300',0.065,-0.151,-0.407,-0.077,97.000
'0:02.310',0.085,-0.153,-0.407,-0.077,97.000
'0:02.320',-0.005,-0.156,-0.408,-0.076,97.000
'0:02.330',0.005,-0.158,-0.408,-0.076,97.000
'0:02.340',-0.030,-0.160,-0.408,-0.076,97.000
'0:02.350',0.000,-0.163,-0.408,-0.075,97.000
'0:02.360',-0.025,-0.166,-0.408,-0.075,97.000
'0:02.370',-0.015,-0.168,-0.407,-0.074,97.000
'0:02.380',-0.015,-0.171,-0.407,-0.074,97.000
'0:02.390',-0.020,-0.174,-0.407,-0.074,97.000
'0:02.400',-0.005,-0.177,-0.406,-0.073,97.000
'0:02.410',-0.015,-0.180,-0.404,-0.073,97.000
'0:02.420',-0.015,-0.183,-0.402,-0.073,97.000
'0:02.430',-0.005,-0.187,-0.400,-0.073,97.000
'0:02.440',-0.010,-0.190,-0.398,-0.072,97.000
'0:02.450',-0.015,-0.193,-0.396,-0.072,97.000
'0:02.460',0.005,-0.197,-0.391,-0.072,97.000
'0:02.470',-0.010,-0.201,-0.387,-0.072,97.000
'0:02.480',0.000,-0.205,-0.383,-0.071,97.000
'0:02.490',-0.005,-0.210,-0.378,-0.071,97.000
'0:02.500',0.000,-0.214,-0.374,-0.071,97.000
'0:02.510',-0.010,-0.218,-0.378,-0.071,97.000
'0:02.520',-0.010,-0.221,-0.383,-0.070,97.000
'0:02.530',-0.030,-0.225,-0.388,-0.070,97.000
'0:02.540',0.005,-0.229,-0.393,-0.070,97.000
'0:02.550',-0.025,-0.233,-0.397,-0.070,97.000
'0:02.560',-0.020,-0.234,-0.403,-0.069,97.000
'0:02.570',-0.025,-0.235,-0.409,-0.069,97.000
'0:02.580',0.000,-0.236,-0.414,-0.069,97.000
'0:02.590',-0.025,-0.237,-0.420,-0.068,97.000
'0:02.600',0.000,-0.237,-0.425,-0.068,97.000
'0:02.610',-0.030,-0.237,-0.422,-0.068,97.000
'0:02.620',-0.025,-0.236,-0.419,-0.067,97.000
'0:02.630',-0.020,-0.235,-0.416,-0.067,97.000
'0:02.640',0.000,-0.234,-0.413,-0.067,97.000
'0:02.650',-0.035,-0.233,-0.410,-0.066,97.000
'0:02.660',-0.015,-0.235,-0.411,-0.066,97.000
'0:02.670',-0.020,-0.237,-0.412,-0.066,97.000
'0:02.680',-0.025,-0.238,-0.412,-0.065,97.000
'0:02.690',-0.025,-0.240,-0.413,-0.065,97.000
'0:02.700',-0.025,-0.241,-0.413,-0.065,97.000
'0:02.710',-0.015,-0.243,-0.414,-0.065,97.000
'0:02.720',-0.025,-0.245,-0.415,-0.065,97.000
'0:02.730',-0.020,-0.247,-0.415,-0.064,97.000
'0:02.740',-0.050,-0.249,-0.416,-0.064,97.000
'0:02.750',-0.005,-0.251,-0.416,-0.064,97.000
'0:02.760',-0.060,-0.253,-0.411,-0.064,97.000
'0:02.770',-0.005,-0.255,-0.405,-0.064,97.000
'0:02.780',-0.060,-0.257,-0.399,-0.064,97.000
'0:02.790',-0.010,-0.259,-0.393,-0.064,97.000
'0:02.800',-0.060,-0.261,-0.387,-0.064,97.000
'0:02.810',-0.025,-0.262,-0.381,-0.063,97.000
'0:02.820',-0.075,-0.264,-0.376,-0.063,97.000
'0:02.830',-0.045,-0.266,-0.370,-0.063,97.000
'0:02.840',-0.050,-0.268,-0.364,-0.063,97.000
'0:02.850',-0.050,-0.270,-0.359,-0.063,97.000
'0:02.860',-0.045,-0.270,-0.358,-0.063,97.000
'0:02.870',-0.050,-0.270,-0.358,-0.063,97.000
'0:02.880',-0.045,-0.270,-0.357,-0.063,97.000
'0:02.890',-0.055,-0.270,-0.357,-0.063,97.000
'0:02.900',-0.035,-0.270,-0.356,-0.063,97.000
'0:02.910',-0.015,-0.271,-0.359,-0.063,97.000
'0:02.920',0.035,-0.273,-0.361,-0.063,97.000
'0:02.930',0.065,-0.274,-0.364,-0.063,97.000
'0:02.940',0.125,-0.275,-0.367,-0.063,97.000
'0:02.950',0.140,-0.276,-0.370,-0.063,97.000
'0:02.960',0.140,-0.277,-0.369,-0.063,97.000
'0:02.970',0.060,-0.278,-0.368,-0.063,97.000
'0:02.980',0.000,-0.279,-0.367,-0.063,97.000
'0:02.990',-0.085,-0.280,-0.367,-0.062,97.000
'0:03.000',-0.060,-0.281,-0.366,-0.062,97.000
'0:03.010',-0.100,-0.282,-0.365,-0.062,97.000
'0:03.020',-0.060,-0.284,-0.364,-0.062,97.000
'0:03.030',-0.105,-0.285,-0.363,-0.062,97.000
'0:03.040',-0.085,-0.287,-0.362,-0.062,97.000
'0:03.050',-0.105,-0.288,-0.361,-0.062,97.000
'0:03.060',-0.065,-0.290,-0.360,-0.062,97.000
'0:03.070',-0.100,-0.291,-0.358,-0.062,97.000
'0:03.080',-0.085,-0.293,-0.356,-0.062,97.000
'0:03.090',-0.095,-0.294,-0.355,-0.062,97.000
'0:03.100',-0.065,-0.296,-0.353,-0.062,97.000
'0:03.110',-0.145,-0.296,-0.352,-0.062,97.000
'0:03.120',-0.250,-0.296,-0.351,-0.062,97.000
'0:03.130',-0.400,-0.296,-0.350,-0.062,97.000
'0:03.140',-0.590,-0.296,-0.348,-0.061,97.000
'0:03.150',0.765,-0.296,-0.347,-0.061,97.000
'0:03.160',1.880,-0.296,-0.346,-0.061,97.000
'0:03.170',1.075,-0.295,-0.346,-0.061,97.000
'0:03.180',0.235,-0.295,-0.345,-0.061,97.000
'0:03.190',0.045,-0.295,-0.344,-0.061,97.000
'0:03.200',0.065,-0.295,-0.343,-0.061,97.000
'0:03.210',0.015,-0.295,-0.340,-0.060,97.000
'0:03.220',-0.085,-0.295,-0.338,-0.060,97.000
'0:03.230',-0.030,-0.295,-0.335,-0.060,97.000
'0:03.240',-0.075,-0.295,-0.332,-0.060,97.000
'0:03.250',-0.020,-0.295,-0.330,-0.060,97.000
'0:03.260',-0.080,-0.293,-0.341,-0.060,97.000
'0:03.270',-0.025,-0.292,-0.351,-0.060,97.000
'0:03.280',-0.055,-0.290,-0.362,-0.060,97.000
'0:03.290',-0.030,-0.289,-0.373,-0.060,97.000
'0:03.300',-0.055,-0.287,-0.384,-0.060,97.000
'0:03.310',-0.045,-0.282,-0.407,-0.060,97.000
'0:03.320',-0.010,-0.277,-0.430,-0.060,97.000
'0:03.330',-0.030,-0.272,-0.454,-0.060,97.000
'0:03.340',-0.020,-0.267,-0.477,-0.060,97.000
'0:03.350',0.005,-0.262,-0.500,-0.060,97.000
'0:03.360',0.030,-0.254,-0.518,-0.060,97.000
'0:03.370',0.015,-0.246,-0.535,-0.060,97.000
'0:03.380',0.010,-0.238,-0.552,-0.060,97.000
'0:03.390',0.000,-0.230,-0.569,-0.060,97.000
'0:03.400',0.065,-0.222,-0.587,-0.060,97.000
'0:03.410',0.075,-0.214,-0.592,-0.060,97.000
'0:03.420',0.085,-0.205,-0.597,-0.060,97.000
'0:03.430',0.140,-0.197,-0.603,-0.060,97.000
'0:03.440',0.205,-0.188,-0.608,-0.060,97.000
'0:03.450',0.200,-0.180,-0.614,-0.060,97.000
'0:03.460',0.170,-0.171,-0.620,-0.060,97.000
'0:03.470',0.120,-0.162,-0.626,-0.060,97.000
'0:03.480',0.130,-0.154,-0.632,-0.059,97.000
'0:03.490',0.010,-0.145,-0.638,-0.059,97.000
'0:03.500',0.065,-0.136,-0.644,-0.059,97.000
'0:03.510',-0.020,-0.129,-0.649,-0.059,97.000
'0:03.520',0.025,-0.121,-0.653,-0.059,97.000
'0:03.530',-0.030,-0.114,-0.658,-0.059,97.000
'0:03.540',0.020,-0.106,-0.662,-0.059,97.000
'0:03.550',0.040,-0.099,-0.667,-0.059,97.000
'0:03.560',-0.020,-0.093,-0.663,-0.059,97.000
'0:03.570',0.010,-0.088,-0.658,-0.059,97.000
'0:03.580',-0.035,-0.082,-0.654,-0.059,97.000
'0:03.590',-0.020,-0.077,-0.650,-0.059,97.000
'0:03.600',-0.010,-0.071,-0.646,-0.059,97.000
'0:03.610',-0.055,-0.067,-0.643,-0.059,97.000
'0:03.620',0.040,-0.063,-0.640,-0.059,97.000
'0:03.630',-0.045,-0.059,-0.638,-0.059,97.000
'0:03.640',-0.015,-0.055,-0.635,-0.058,97.000
'0:03.650',0.000,-0.051,-0.632,-0.058,97.000
'0:03.660',-0.100,-0.049,-0.624,-0.058,97.000
'0:03.670',0.020,-0.048,-0.615,-0.058,97.000
'0:03.680',-0.045,-0.047,-0.607,-0.058,97.000
'0:03.690',0.000,-0.046,-0.599,-0.059,97.000
'0:03.700',-0.030,-0.045,-0.590,-0.059,97.000
'0:03.710',-0.040,-0.045,-0.576,-0.059,97.000
'0:03.720',-0.005,-0.046,-0.563,-0.059,97.000
'0:03.730',0.005,-0.046,-0.549,-0.059,97.000
'0:03.740',-0.060,-0.046,-0.535,-0.059,97.000
'0:03.750',-0.035,-0.047,-0.522,-0.059,97.000
'0:03.760',-0.025,-0.046,-0.514,-0.058,97.000
'0:03.770',-0.065,-0.045,-0.507,-0.058,97.000
'0:03.780',-0.060,-0.044,-0.500,-0.058,97.000
'0:03.790',-0.020,-0.044,-0.493,-0.058,97.000
'0:03.800',-0.060,-0.043,-0.485,-0.058,97.000
'0:03.810',0.000,-0.043,-0.477,-0.058,97.000
'0:03.820',-0.155,-0.043,-0.469,-0.058,97.000
'0:03.830',-0.030,-0.043,-0.461,-0.058,97.000
'0:03.840',-0.040,-0.043,-0.452,-0.058,97.000
'0:03.850',-0.050,-0.043,-0.444,-0.058,97.000
'0:03.860',-0.015,-0.045,-0.437,-0.058,97.000
'0:03.870',-0.070,-0.047,-0.430,-0.058,97.000
'0:03.880',-0.090,-0.049,-0.424,-0.058,97.000
'0:03.890',-0.065,-0.051,-0.417,-0.058,97.000
'0:03.900',-0.065,-0.054,-0.410,-0.058,97.000
'0:03.910',-0.060,-0.060,-0.390,-0.058,97.000
'0:03.920',-0.005,-0.067,-0.370,-0.058,97.000
'0:03.930',-0.095,-0.073,-0.350,-0.058,97.000
'0:03.940',-0.055,-0.080,-0.330,-0.058,97.000
'0:03.950',-0.065,-0.086,-0.310,-0.058,97.000
'0:03.960',-0.030,-0.097,-0.283,-0.058,97.000
'0:03.970',-0.110,-0.108,-0.256,-0.058,97.000
'0:03.980',-0.035,-0.119,-0.229,-0.058,97.000
'0:03.990',-0.075,-0.130,-0.202,-0.058,97.000
'0:04.000',-0.010,-0.141,-0.175,-0.059,97.000
'0:04.010',-0.070,-0.148,-0.170,-0.059,97.000
'0:04.020',-0.040,-0.156,-0.166,-0.059,97.000
'0:04.030',-0.080,-0.163,-0.161,-0.059,97.000
'0:04.040',-0.020,-0.171,-0.157,-0.059,97.000
'0:04.050',-0.095,-0.178,-0.152,-0.059,97.000
'0:04.060',-0.040,-0.182,-0.154,-0.059,97.000
'0:04.070',0.010,-0.187,-0.156,-0.059,97.000
'0:04.080',0.075,-0.191,-0.157,-0.059,97.000
'0:04.090',0.095,-0.195,-0.159,-0.059,97.000
'0:04.100',0.095,-0.199,-0.161,-0.059,97.000
'0:04.110',0.145,-0.203,-0.161,-0.059,97.000
'0:04.120',0.165,-0.207,-0.160,-0.059,97.000
'0:04.130',0.010,-0.211,-0.160,-0.059,97.000
'0:04.140',-0.065,-0.215,-0.160,-0.059,97.000
'0:04.150',-0.025,-0.220,-0.160,-0.060,97.000
'0:04.160',-0.090,-0.221,-0.159,-0.060,97.000
'0:04.170',-0.100,-0.221,-0.159,-0.060,97.000
'0:04.180',-0.165,-0.222,-0.158,-0.060,97.000
'0:04.190',-0.060,-0.223,-0.158,-0.060,97.000
'0:04.200',-0.095,-0.224,-0.158,-0.060,97.000
'0:04.210',-0.105,-0.224,-0.157,-0.060,97.000
'0:04.220',-0.070,-0.224,-0.156,-0.060,97.000
'0:04.230',-0.120,-0.223,-0.155,-0.060,97.000
'0:04.240',-0.135,-0.223,-0.154,-0.061,97.000
'0:04.250',-0.085,-0.223,-0.153,-0.061,97.000
'0:04.260',-0.105,-0.223,-0.154,-0.061,97.000
'0:04.270',-0.170,-0.223,-0.156,-0.061,97.000
'0:04.280',-0.315,-0.223,-0.157,-0.061,97.000
'0:04.290',-0.425,-0.223,-0.158,-0.062,97.000
'0:04.300',-0.535,-0.223,-0.160,-0.062,97.000
'0:04.310',1.030,-0.223,-0.161,-0.062,97.000
'0:04.320',1.715,-0.223,-0.163,-0.062,97.000
'0:04.330',0.955,-0.223,-0.165,-0.062,97.000
'0:04.340',0.080,-0.223,-0.166,-0.062,97.000
'0:04.350',-0.020,-0.223,-0.168,-0.062,97.000
'0:04.360',0.010,-0.225,-0.170,-0.062,97.000
'0:04.370',-0.075,-0.227,-0.172,-0.062,97.000
'0:04.380',-0.090,-0.228,-0.174,-0.062,97.000
'0:04.390',-0.155,-0.230,-0.176,-0.062,97.000
'0:04.400',-0.080,-0.232,-0.179,-0.062,97.000
'0:04.410',-0.160,-0.234,-0.182,-0.062,97.000
'0:04.420',-0.075,-0.236,-0.185,-0.062,97.000
'0:04.430',-0.130,-0.238,-0.188,-0.062,97.000
'0:04.440',-0.095,-0.240,-0.191,-0.062,97.000
'0:04.450',-0.110,-0.242,-0.195,-0.062,97.000
'0:04.460',-0.100,-0.244,-0.199,-0.062,97.000
'0:04.470',-0.125,-0.247,-0.204,-0.062,97.000
'0:04.480',-0.070,-0.249,-0.209,-0.062,97.000
'0:04.490',-0.095,-0.252,-0.213,-0.062,97.000
'0:04.500',-0.045,-0.254,-0.218,-0.062,97.000
'0:04.510',-0.085,-0.258,-0.224,-0.062,97.000
'0:04.520',-0.050,-0.262,-0.230,-0.062,97.000
'0:04.530',-0.050,-0.266,-0.236,-0.062,97.000
'0:04.540',0.005,-0.271,-0.242,-0.062,97.000
'0:04.550',-0.015,-0.275,-0.248,-0.062,97.000
'0:04.560',0.015,-0.278,-0.253,-0.062,97.000
'0:04.570',0.025,-0.281,-0.257,-0.062,97.000
'0:04.580',0.075,-0.284,-0.262,-0.063,97.000
'0:04.590',0.125,-0.287,-0.267,-0.063,97.000
'0:04.600',0.145,-0.291,-0.271,-0.063,97.000
'0:04.610',0.200,-0.293,-0.276,-0.063,97.000
'0:04.620',0.120,-0.295,-0.281,-0.063,97.000
'0:04.630',0.125,-0.298,-0.286,-0.063,97.000
'0:04.640',0.045,-0.300,-0.291,-0.063,97.000
'0:04.650',0.050,-0.302,-0.296,-0.063,97.000
'0:04.660',-0.020,-0.304,-0.300,-0.063,97.000
'0:04.670',0.000,-0.306,-0.305,-0.063,97.000
'0:04.680',-0.035,-0.308,-0.310,-0.063,97.000
'0:04.690',0.000,-0.310,-0.314,-0.063,97.000
'0:04.700',-0.020,-0.312,-0.319,-0.064,97.000
'0:04.710',-0.015,-0.314,-0.321,-0.064,97.000
'0:04.720',-0.010,-0.315,-0.324,-0.064,97.000
'0:04.730',-0.030,-0.316,-0.327,-0.064,97.000
'0:04.740',-0.010,-0.317,-0.329,-0.064,97.000
'0:04.750',-0.030,-0.319,-0.332,-0.064,97.000
'0:04.760',0.005,-0.320,-0.336,-0.064,97.000
'0:04.770',-0.035,-0.321,-0.340,-0.064,97.000
'0:04.780',-0.015,-0.322,-0.345,-0.064,97.000
'0:04.790',-0.020,-0.323,-0.349,-0.064,97.000
'0:04.800',-0.025,-0.324,-0.353,-0.064,97.000
'0:04.810',-0.030,-0.323,-0.354,-0.064,97.000
'0:04.820',-0.020,-0.323,-0.355,-0.064,97.000
'0:04.830',-0.015,-0.322,-0.356,-0.064,97.000
'0:04.840',-0.015,-0.322,-0.357,-0.064,97.000
'0:04.850',-0.010,-0.321,-0.358,-0.064,97.000
'0:04.860',-0.030,-0.319,-0.359,-0.064,97.000
'0:04.870',-0.060,-0.316,-0.361,-0.064,97.000
'0:04.880',-0.025,-0.314,-0.362,-0.064,97.000
'0:04.890',-0.010,-0.311,-0.364,-0.065,97.000
'0:04.900',-0.025,-0.309,-0.365,-0.065,97.000
'0:04.910',-0.020,-0.305,-0.364,-0.065,97.000
'0:04.920',-0.045,-0.301,-0.362,-0.065,97.000
'0:04.930',-0.030,-0.298,-0.361,-0.065,97.000
'0:04.940',-0.025,-0.294,-0.359,-0.065,97.000
'0:04.950',-0.055,-0.290,-0.358,-0.065,97.000
'0:04.960',-0.030,-0.286,-0.355,-0.065,97.000
'0:04.970',-0.020,-0.282,-0.353,-0.065,97.000
'0:04.980',-0.020,-0.278,-0.350,-0.065,97.000
'0:04.990',-0.075,-0.274,-0.348,-0.065,97.000
'0:05.000',-0.030,-0.270,-0.346,-0.065,97.000
'0:05.010',-0.035,-0.264,-0.343,-0.065,97.000
'0:05.020',-0.070,-0.259,-0.340,-0.064,97.000
'0:05.030',-0.035,-0.254,-0.337,-0.064,97.000
'0:05.040',-0.040,-0.249,-0.334,-0.064,97.000
'0:05.050',-0.035,-0.243,-0.331,-0.064,97.000
'0:05.060',-0.075,-0.238,-0.317,-0.064,97.000
'0:05.070',-0.015,-0.233,-0.304,-0.064,97.000
'0:05.080',-0.055,-0.228,-0.291,-0.064,97.000
'0:05.090',-0.050,-0.223,-0.278,-0.064,97.000
'0:05.100',-0.075,-0.218,-0.264,-0.064,97.000
'0:05.110',-0.025,-0.211,-0.252,-0.064,97.000
'0:05.120',-0.060,-0.204,-0.239,-0.064,97.000
'0:05.130',-0.060,-0.198,-0.227,-0.064,97.000
'0:05.140',-0.060,-0.191,-0.214,-0.064,97.000
'0:05.150',-0.035,-0.184,-0.202,-0.065,97.000
'0:05.160',-0.065,-0.175,-0.191,-0.065,97.000
'0:05.170',-0.045,-0.166,-0.180,-0.064,97.000
'0:05.180',-0.100,-0.157,-0.169,-0.064,97.000
'0:05.190',-0.030,-0.148,-0.158,-0.064,97.000
'0:05.200',0.005,-0.139,-0.147,-0.064,97.000
'0:05.210',0.025,-0.133,-0.136,-0.064,97.000
'0:05.220',0.060,-0.126,-0.125,-0.064,97.000
'0:05.230',0.120,-0.120,-0.114,-0.064,97.000
'0:05.240',0.170,-0.114,-0.103,-0.064,97.000
'0:05.250',0.115,-0.108,-0.092,-0.064,97.000
'0:05.260',0.050,-0.101,-0.083,-0.064,97.000
'0:05.270',-0.050,-0.094,-0.073,-0.064,97.000
'0:05.280',-0.080,-0.087,-0.064,-0.064,97.000
'0:05.290',-0.095,-0.080,-0.055,-0.065,97.000
'0:05.300',-0.125,-0.073,-0.046,-0.065,97.000
'0:05.310',-0.075,-0.067,-0.037,-0.064,97.000
'0:05.320',-0.100,-0.060,-0.027,-0.064,97.000
'0:05.330',-0.095,-0.054,-0.017,-0.064,97.000
'0:05.340',-0.100,-0.048,-0.008,-0.064,97.000
'0:05.350',-0.110,-0.041,0.002,-0.064,97.000
'0:05.360',-0.090,-0.038,0.011,-0.064,97.000
'0:05.370',-0.080,-0.034,0.020,-0.064,97.000
'0:05.380',-0.125,-0.030,0.028,-0.064,97.000
'0:05.390',-0.070,-0.026,0.037,-0.064,97.000
'0:05.400',-0.155,-0.023,0.046,-0.064,97.000
'0:05.410',-0.325,-0.017,0.061,-0.064,97.000
'0:05.420',-0.420,-0.011,0.076,-0.064,97.000
'0:05.430',-0.485,-0.005,0.092,-0.064,97.000
'0:05.440',1.135,0.000,0.107,-0.064,97.000
'0:05.450',1.565,0.006,0.122,-0.064,97.000
'0:05.460',0.895,0.010,0.143,-0.064,97.000
'0:05.470',0.135,0.014,0.165,-0.063,97.000
'0:05.480',-0.040,0.018,0.186,-0.063,97.000
'0:05.490',0.080,0.022,0.208,-0.063,97.000
'0:05.500',-0.050,0.026,0.229,-0.063,97.000
'0:05.510',-0.090,0.027,0.245,-0.063,97.000
'0:05.520',-0.125,0.028,0.262,-0.063,97.000
'0:05.530',-0.085,0.030,0.278,-0.063,97.000
'0:05.540',-0.120,0.031,0.294,-0.063,97.000
'0:05.550',-0.100,0.032,0.311,-0.063,97.000
'0:05.560',-0.130,0.035,0.325,-0.063,97.000
'0:05.570',-0.065,0.039,0.339,-0.063,97.000
'0:05.580',-0.125,0.042,0.353,-0.063,97.000
'0:05.590',-0.070,0.045,0.367,-0.063,97.000
'0:05.600',-0.145,0.048,0.382,-0.063,97.000
'0:05.610',-0.080,0.052,0.395,-0.063,97.000
'0:05.620',-0.085,0.056,0.408,-0.063,97.000
'0:05.630',-0.065,0.061,0.421,-0.063,97.000
'0:05.640',-0.110,0.065,0.434,-0.063,97.000
'0:05.650',-0.020,0.069,0.448,-0.063,97.000
'0:05.660',-0.090,0.071,0.457,-0.063,97.000
'0:05.670',-0.040,0.074,0.467,-0.063,97.000
'0:05.680',-0.030,0.077,0.476,-0.063,97.000
'0:05.690',0.000,0.079,0.486,-0.063,97.000
'0:05.700',0.020,0.082,0.496,-0.063,97.000
'0:05.710',0.030,0.083,0.496,-0.063,97.000
'0:05.720',0.065,0.084,0.495,-0.063,97.000
'0:05.730',0.095,0.085,0.495,-0.062,97.000
'0:05.740',0.125,0.086,0.495,-0.062,97.000
'0:05.750',0.090,0.087,0.495,-0.062,97.000
'0:05.760',0.065,0.087,0.486,-0.062,97.000
'0:05.770',0.025,0.087,0.477,-0.062,97.000
'0:05.780',0.030,0.087,0.468,-0.062,97.000
'0:05.790',-0.030,0.087,0.460,-0.062,97.000
'0:05.800',-0.020,0.087,0.451,-0.062,97.000
'0:05.810',-0.020,0.086,0.435,-0.062,97.000
'0:05.820',-0.020,0.086,0.418,-0.062,97.000
'0:05.830',-0.030,0.086,0.402,-0.062,97.000
'0:05.840',-0.030,0.086,0.386,-0.062,97.000
'0:05.850',-0.045,0.086,0.370,-0.062,97.000
'0:05.860',-0.025,0.087,0.352,-0.062,97.000
'0:05.870',-0.025,0.088,0.333,-0.062,97.000
'0:05.880',-0.025,0.089,0.315,-0.062,97.000
'0:05.890',-0.060,0.090,0.296,-0.062,97.000
'0:05.900',-0.025,0.091,0.278,-0.061,97.000
'0:05.910',-0.050,0.091,0.271,-0.061,97.000
'0:05.920',-0.010,0.091,0.264,-0.061,97.000
'0:05.930',-0.025,0.092,0.256,-0.061,97.000
'0:05.940',-0.030,0.092,0.249,-0.061,97.000
'0:05.950',-0.030,0.093,0.242,-0.061,97.000
'0:05.960',-0.045,0.092,0.235,-0.061,97.000
'0:05.970',-0.020,0.092,0.228,-0.061,97.000
'0:05.980',-0.045,0.092,0.221,-0.062,97.000
'0:05.990',-0.055,0.091,0.213,-0.062,97.000
'0:06.000',-0.025,0.091,0.206,-0.062,97.000
'0:06.010',-0.015,0.090,0.198,-0.062,97.000
'0:06.020',-0.045,0.090,0.190,-0.062,97.000
'0:06.030',-0.005,0.089,0.182,-0.062,97.000
'0:06.040',-0.040,0.088,0.174,-0.063,97.000
'0:06.050',-0.050,0.088,0.166,-0.063,97.000
'0:06.060',-0.040,0.087,0.162,-0.063,97.000
'0:06.070',-0.020,0.086,0.158,-0.063,97.000
'0:06.080',-0.025,0.085,0.154,-0.063,97.000
'0:06.090',-0.045,0.084,0.150,-0.063,97.000
'0:06.100',-0.035,0.083,0.146,-0.063,97.000
'0:06.110',-0.030,0.083,0.142,-0.063,97.000
'0:06.120',-0.030,0.082,0.138,-0.063,97.000
'0:06.130',-0.035,0.081,0.133,-0.063,97.000
'0:06.140',-0.050,0.081,0.129,-0.063,97.000
'0:06.150',-0.035,0.080,0.125,-0.063,97.000
'0:06.160',-0.015,0.080,0.121,-0.063,97.000
'0:06.170',-0.055,0.080,0.117,-0.063,97.000
'0:06.180',-0.060,0.080,0.113,-0.063,97.000
'0:06.190',0.030,0.080,0.109,-0.063,97.000
'0:06.200',0.045,0.080,0.106,-0.063,97.000
'0:06.210',0.085,0.078,0.101,-0.063,97.000
'0:06.220',0.125,0.076,0.097,-0.063,97.000
'0:06.230',0.165,0.074,0.093,-0.063,97.000
'0:06.240',0.125,0.073,0.089,-0.063,97.000
'0:06.250',0.055,0.071,0.085,-0.063,97.000
'0:06.260',-0.030,0.068,0.079,-0.063,97.000
'0:06.270',-0.085,0.064,0.074,-0.063,97.000
'0:06.280',-0.095,0.061,0.069,-0.063,97.000
'0:06.290',-0.090,0.058,0.064,-0.063,97.000
'0:06.300',-0.115,0.055,0.058,-0.063,97.000
'0:06.310',-0.095,0.052,0.055,-0.063,97.000
'0:06.320',-0.095,0.050,0.052,-0.063,97.000
'0:06.330',-0.125,0.047,0.049,-0.063,97.000
'0:06.340',-0.095,0.044,0.046,-0.063,97.000
'0:06.350',-0.125,0.042,0.043,-0.063,97.000
'0:06.360',-0.090,0.037,0.037,-0.063,97.000
'0:06.370',-0.095,0.033,0.030,-0.064,97.000
'0:06.380',-0.100,0.029,0.023,-0.064,97.000
'0:06.390',-0.150,0.025,0.016,-0.064,97.000
'0:06.400',-0.220,0.021,0.010,-0.064,97.000
'0:06.410',-0.375,0.017,0.002,-0.064,97.000
'0:06.420',-0.575,0.014,-0.005,-0.065,97.000
'0:06.430',0.705,0.010,-0.012,-0.065,97.000
'0:06.440',1.735,0.006,-0.019,-0.065,97.000
'0:06.450',0.920,0.003,-0.027,-0.065,97.000
'0:06.460',0.220,-0.001,-0.034,-0.065,97.000
'0:06.470',0.015,-0.005,-0.041,-0.065,97.000
'0:06.480',0.055,-0.009,-0.048,-0.065,97.000
'0:06.490',-0.045,-0.012,-0.055,-0.065,97.000
'0:06.500',-0.095,-0.016,-0.063,-0.066,97.000
'0:06.510',-0.075,-0.021,-0.087,-0.066,97.000
'0:06.520',-0.110,-0.026,-0.111,-0.066,97.000
'0:06.530',-0.080,-0.031,-0.135,-0.066,97.000
'0:06.540',-0.090,-0.035,-0.159,-0.066,97.000
'0:06.550',-0.080,-0.040,-0.183,-0.066,97.000
'0:06.560',-0.115,-0.043,-0.205,-0.066,97.000
'0:06.570',-0.035,-0.045,-0.226,-0.066,97.000
'0:06.580',-0.085,-0.048,-0.247,-0.065,97.000
'0:06.590',-0.075,-0.050,-0.269,-0.065,97.000
'0:06.600',-0.070,-0.053,-0.290,-0.065,97.000
'0:06.610',-0.025,-0.054,-0.300,-0.065,97.000
'0:06.620',-0.055,-0.055,-0.310,-0.065,97.000
'0:06.630',-0.025,-0.056,-0.320,-0.065,97.000
'0:06.640',-0.040,-0.057,-0.330,-0.065,97.000
'0:06.650',-0.020,-0.058,-0.340,-0.065,97.000
'0:06.660',-0.010,-0.059,-0.346,-0.065,97.000
'0:06.670',0.030,-0.060,-0.353,-0.065,97.000
'0:06.680',0.035,-0.061,-0.360,-0.065,97.000
'0:06.690',0.055,-0.062,-0.366,-0.065,97.000
'0:06.700',0.145,-0.063,-0.373,-0.066,97.000
'0:06.710',0.125,-0.063,-0.378,-0.066,97.000
'0:06.720',0.170,-0.062,-0.384,-0.066,97.000
'0:06.730',0.160,-0.062,-0.389,-0.066,97.000
'0:06.740',0.135,-0.062,-0.394,-0.066,97.000
'0:06.750',0.115,-0.062,-0.399,-0.066,97.000
'0:06.760',0.065,-0.063,-0.406,-0.066,97.000
'0:06.770',0.020,-0.063,-0.412,-0.066,97.000
'0:06.780',-0.005,-0.064,-0.418,-0.067,97.000
'0:06.790',-0.025,-0.064,-0.425,-0.067,97.000
'0:06.800',0.025,-0.065,-0.431,-0.067,97.000
'0:06.810',-0.050,-0.065,-0.432,-0.067,97.000
'0:06.820',-0.010,-0.064,-0.432,-0.067,97.000
'0:06.830',-0.015,-0.064,-0.433,-0.067,97.000
'0:06.840',-0.010,-0.064,-0.434,-0.067,97.000
'0:06.850',-0.045,-0.064,-0.435,-0.067,97.000
'0:06.860',-0.010,-0.064,-0.435,-0.067,97.000
'0:06.870',0.005,-0.064,-0.436,-0.067,97.000
'0:06.880',-0.010,-0.064,-0.436,-0.067,97.000
'0:06.890',-0.035,-0.064,-0.437,-0.067,97.000
'0:06.900',0.000,-0.064,-0.437,-0.067,97.000
'0:06.910',-0.020,-0.065,-0.437,-0.067,97.000
'0:06.920',0.005,-0.066,-0.437,-0.067,97.000
'0:06.930',-0.020,-0.067,-0.437,-0.067,97.000
'0:06.940',0.000,-0.068,-0.437,-0.067,97.000
'0:06.950',0.005,-0.069,-0.437,-0.068,98.000
'0:06.960',-0.025,-0.067,-0.437,-0.068,98.000
'0:06.970',0.000,-0.066,-0.436,-0.068,98.000
'0:06.980',-0.010,-0.065,-0.436,-0.068,98.000
'0:06.990',-0.015,-0.064,-0.436,-0.068,98.000
'0:07.000',-0.020,-0.062,-0.435,-0.068,98.000
'0:07.010',0.020,-0.064,-0.435,-0.068,98.000
'0:07.020',-0.015,-0.066,-0.435,-0.068,98.000
'0:07.030',-0.030,-0.068,-0.435,-0.068,98.000
'0:07.040',-0.020,-0.070,-0.435,-0.068,98.000
'0:07.050',-0.020,-0.072,-0.434,-0.068,98.000
'0:07.060',-0.005,-0.072,-0.433,-0.068,98.000
'0:07.070',-0.010,-0.072,-0.431,-0.068,98.000
'0:07.080',-0.040,-0.073,-0.430,-0.068,98.000
'0:07.090',0.000,-0.073,-0.428,-0.068,98.000
'0:07.100',-0.035,-0.073,-0.427,-0.068,98.000
'0:07.110',-0.020,-0.073,-0.426,-0.068,98.000
'0:07.120',-0.015,-0.072,-0.426,-0.068,98.000
'0:07.130',-0.015,-0.071,-0.425,-0.068,98.000
'0:07.140',-0.060,-0.070,-0.425,-0.068,98.000
'0:07.150',-0.005,-0.069,-0.424,-0.068,98.000
'0:07.160',-0.050,-0.070,-0.423,-0.067,98.000
'0:07.170',-0.020,-0.071,-0.422,-0.067,98.000
'0:07.180',-0.015,-0.071,-0.421,-0.067,98.000
'0:07.190',-0.025,-0.072,-0.420,-0.067,98.000
'0:07.200',-0.035,-0.073,-0.419,-0.067,98.000
'0:07.210',-0.025,-0.072,-0.416,-0.067,98.000
'0:07.220',-0.025,-0.071,-0.414,-0.067,98.000
'0:07.230',-0.035,-0.070,-0.411,-0.067,98.000
'0:07.240',-0.035,-0.069,-0.409,-0.067,98.000
'0:07.250',-0.025,-0.068,-0.406,-0.067,98.000
'0:07.260',-0.050,-0.068,-0.403,-0.067,98.000
'0:07.270',-0.045,-0.068,-0.399,-0.067,98.000
'0:07.280',0.000,-0.069,-0.395,-0.067,98.000
'0:07.290',-0.045,-0.069,-0.391,-0.067,98.000
'0:07.300',-0.035,-0.069,-0.388,-0.067,98.000
'0:07.310',-0.060,-0.069,-0.386,-0.067,98.000
'0:07.320',-0.035,-0.070,-0.384,-0.067,98.000
'0:07.330',-0.060,-0.070,-0.383,-0.066,98.000
'0:07.340',-0.040,-0.071,-0.381,-0.066,98.000
'0:07.350',-0.055,-0.071,-0.379,-0.066,98.000
'0:07.360',0.020,-0.072,-0.380,-0.066,98.000
'0:07.370',0.030,-0.073,-0.380,-0.066,98.000
'0:07.380',0.055,-0.073,-0.380,-0.066,98.000
'0:07.390',0.110,-0.074,-0.380,-0.066,98.000
'0:07.400',0.190,-0.075,-0.380,-0.066,98.000
'0:07.410',0.110,-0.074,-0.376,-0.065,98.000
'0:07.420',0.125,-0.073,-0.371,-0.065,98.000
'0:07.430',-0.015,-0.072,-0.367,-0.065,98.000
'0:07.440',-0.045,-0.071,-0.362,-0.065,98.000
'0:07.450',-0.080,-0.070,-0.358,-0.065,98.000
'0:07.460',-0.050,-0.069,-0.356,-0.065,98.000
'0:07.470',-0.095,-0.069,-0.355,-0.065,98.000
'0:07.480',-0.090,-0.068,-0.353,-0.065,98.000
'0:07.490',-0.115,-0.068,-0.351,-0.065,98.000
'0:07.500',-0.075,-0.067,-0.350,-0.065,98.000
'0:07.510',-0.140,-0.067,-0.345,-0.064,98.000
'0:07.520',-0.075,-0.067,-0.340,-0.064,98.000
'0:07.530',-0.095,-0.067,-0.336,-0.064,98.000
'0:07.540',-0.055,-0.067,-0.331,-0.064,98.000
'0:07.550',-0.145,-0.067,-0.327,-0.064,98.000
'0:07.560',-0.075,-0.066,-0.320,-0.064,98.000
'0:07.570',-0.200,-0.064,-0.312,-0.064,98.000
'0:07.580',-0.425,-0.062,-0.305,-0.064,98.000
'0:07.590',-0.595,-0.061,-0.298,-0.064,98.000
'0:07.600',0.155,-0.059,-0.291,-0.064,98.000
'0:07.610',1.890,-0.059,-0.281,-0.064,98.000
'0:07.620',1.150,-0.060,-0.270,-0.064,98.000
'0:07.630',0.520,-0.060,-0.259,-0.063,98.000
'0:07.640',0.005,-0.060,-0.248,-0.063,98.000
'0:07.650',0.040,-0.060,-0.237,-0.063,98.000
'0:07.660',-0.015,-0.060,-0.212,-0.063,98.000
'0:07.670',-0.125,-0.060,-0.188,-0.063,98.000
'0:07.680',-0.075,-0.060,-0.163,-0.063,98.000
'0:07.690',-0.110,-0.059,-0.139,-0.063,98.000
'0:07.700',-0.075,-0.059,-0.114,-0.063,98.000
'0:07.710',-0.100,-0.059,-0.103,-0.063,98.000
'0:07.720',-0.085,-0.058,-0.092,-0.063,98.000
'0:07.730',-0.115,-0.058,-0.081,-0.063,98.000
'0:07.740',-0.065,-0.057,-0.070,-0.063,98.000
'0:07.750',-0.100,-0.057,-0.059,-0.063,98.000
'0:07.760',-0.105,-0.056,-0.058,-0.063,98.000
'0:07.770',-0.090,-0.055,-0.057,-0.063,98.000
'0:07.780',-0.075,-0.054,-0.055,-0.063,98.000
'0:07.790',-0.070,-0.053,-0.054,-0.063,98.000
'0:07.800',-0.045,-0.052,-0.053,-0.063,98.000
'0:07.810',-0.095,-0.050,-0.049,-0.062,98.000
'0:07.820',-0.035,-0.048,-0.044,-0.062,98.000
'0:07.830',-0.025,-0.047,-0.040,-0.062,98.000
'0:07.840',0.015,-0.045,-0.036,-0.062,98.000
'0:07.850',-0.010,-0.043,-0.032,-0.062,98.000
'0:07.860',0.020,-0.041,-0.028,-0.062,98.000
'0:07.870',0.085,-0.039,-0.025,-0.062,98.000
'0:07.880',0.070,-0.036,-0.021,-0.062,98.000
'0:07.890',0.105,-0.034,-0.017,-0.062,98.000
'0:07.900',0.170,-0.031,-0.014,-0.062,98.000
'0:07.910',0.100,-0.030,-0.010,-0.062,98.000
'0:07.920',0.135,-0.029,-0.006,-0.062,98.000
'0:07.930',0.085,-0.027,-0.002,-0.062,98.000
'0:07.940',0.040,-0.026,0.003,-0.061,98.000
'0:07.950',0.010,-0.024,0.007,-0.061,98.000
'0:07.960',0.000,-0.023,0.008,-0.061,98.000
'0:07.970',-0.050,-0.022,0.009,-0.061,98.000
'0:07.980',0.005,-0.021,0.010,-0.061,98.000
'0:07.990',-0.015,-0.020,0.012,-0.061,98.000
'0:08.000',-0.015,-0.019,0.013,-0.060,98.000
'0:08.010',-0.025,-0.019,0.014,-0.060,98.000
'0:08.020',-0.020,-0.019,0.014,-0.060,98.000
'0:08.030',-0.015,-0.019,0.015,-0.060,98.000
'0:08.040',-0.025,-0.019,0.016,-0.060,98.000
'0:08.050',-0.015,-0.020,0.017,-0.060,98.000
'0:08.060',-0.025,-0.020,0.017,-0.060,98.000
'0:08.070',-0.030,-0.021,0.016,-0.060,98.000
'0:08.080',-0.020,-0.021,0.016,-0.060,98.000
'0:08.090',-0.020,-0.021,0.016,-0.060,98.000
'0:08.100',-0.035,-0.022,0.016,-0.060,98.000
'0:08.110',0.005,-0.020,0.016,-0.060,98.000
'0:08.120',-0.055,-0.019,0.016,-0.060,98.000
'0:08.130',0.000,-0.017,0.016,-0.060,98.000
'0:08.140',-0.035,-0.016,0.016,-0.060,98.000
'0:08.150',-0.020,-0.014,0.015,-0.060,98.000
'0:08.160',-0.010,-0.015,0.013,-0.060,98.000
'0:08.170',-0.055,-0.016,0.011,-0.059,98.000
'0:08.180',-0.010,-0.017,0.009,-0.059,98.000
'0:08.190',-0.020,-0.017,0.007,-0.059,98.000
'0:08.200',-0.025,-0.018,0.005,-0.059,98.000
'0:08.210',-0.040,-0.019,0.002,-0.059,98.000
'0:08.220',-0.020,-0.021,-0.001,-0.059,98.000
'0:08.230',-0.035,-0.022,-0.004,-0.059,98.000
'0:08.240',-0.010,-0.024,-0.007,-0.059,98.000
'0:08.250',-0.025,-0.025,-0.010,-0.059,98.000
'0:08.260',-0.010,-0.026,-0.012,-0.059,98.000
'0:08.270',-0.015,-0.026,-0.015,-0.059,98.000
'0:08.280',-0.020,-0.027,-0.017,-0.059,98.000
'0:08.290',-0.025,-0.027,-0.019,-0.059,98.000
'0:08.300',-0.055,-0.028,-0.021,-0.059,98.000
'0:08.310',-0.010,-0.029,-0.024,-0.058,98.000
'0:08.320',-0.030,-0.031,-0.027,-0.058,98.000
'0:08.330',-0.030,-0.032,-0.030,-0.058,98.000
'0:08.340',-0.025,-0.034,-0.033,-0.058,98.000
'0:08.350',-0.060,-0.035,-0.035,-0.058,98.000
'0:08.360',-0.040,-0.036,-0.038,-0.058,98.000
'0:08.370',-0.035,-0.037,-0.041,-0.058,98.000
'0:08.380',-0.045,-0.038,-0.044,-0.058,98.000
'0:08.390',-0.045,-0.040,-0.047,-0.058,98.000
'0:08.400',-0.065,-0.041,-0.050,-0.058,98.000
'0:08.410',-0.040,-0.042,-0.051,-0.058,98.000
'0:08.420',-0.045,-0.043,-0.052,-0.058,98.000
'0:08.430',-0.055,-0.043,-0.053,-0.058,98.000
'0:08.440',-0.045,-0.044,-0.054,-0.058,98.000
'0:08.450',-0.075,-0.045,-0.056,-0.058,98.000
'0:08.460',-0.065,-0.046,-0.058,-0.058,98.000
'0:08.470',-0.055,-0.047,-0.060,-0.057,98.000
'0:08.480',-0.090,-0.048,-0.062,-0.057,98.000
'0:08.490',-0.040,-0.049,-0.064,-0.057,98.000
'0:08.500',-0.095,-0.050,-0.066,-0.057,98.000
'0:08.510',-0.045,-0.050,-0.066,-0.057,98.000
'0:08.520',0.030,-0.051,-0.066,-0.057,98.000
'0:08.530',0.045,-0.051,-0.065,-0.057,98.000
'0:08.540',0.090,-0.052,-0.065,-0.057,98.000
'0:08.550',0.145,-0.053,-0.065,-0.057,98.000
'0:08.560',0.090,-0.053,-0.067,-0.057,98.000
'0:08.570',0.080,-0.053,-0.069,-0.057,98.000
'0:08.580',-0.025,-0.053,-0.072,-0.056,98.000
'0:08.590',-0.100,-0.053,-0.074,-0.056,98.000
'0:08.600',-0.100,-0.053,-0.076,-0.056,98.000
'0:08.610',-0.085,-0.054,-0.080,-0.056,98.000
'0:08.620',-0.150,-0.054,-0.084,-0.056,98.000
'0:08.630',-0.115,-0.055,-0.088,-0.056,98.000
'0:08.640',-0.155,-0.055,-0.092,-0.056,98.000
'0:08.650',-0.100,-0.056,-0.095,-0.056,98.000
'0:08.660',-0.145,-0.056,-0.099,-0.056,98.000
'0:08.670',-0.090,-0.057,-0.103,-0.056,98.000
'0:08.680',-0.145,-0.057,-0.107,-0.056,98.000
'0:08.690',-0.090,-0.058,-0.111,-0.055,98.000
'0:08.700',-0.140,-0.058,-0.115,-0.055,98.000
'0:08.710',-0.085,-0.060,-0.121,-0.055,98.000
'0:08.720',-0.265,-0.062,-0.126,-0.055,98.000
'0:08.730',-0.435,-0.064,-0.132,-0.055,98.000
'0:08.740',-0.595,-0.066,-0.138,-0.055,98.000
'0:08.750',0.130,-0.068,-0.143,-0.055,98.000
'0:08.760',1.810,-0.072,-0.141,-0.054,98.000
'0:08.770',1.155,-0.076,-0.139,-0.054,98.000
'0:08.780',0.500,-0.080,-0.137,-0.054,98.000
'0:08.790',0.015,-0.084,-0.135,-0.054,98.000
'0:08.800',0.005,-0.089,-0.133,-0.054,98.000
'0:08.810',-0.035,-0.091,-0.146,-0.054,98.000
'0:08.820',-0.135,-0.094,-0.158,-0.054,98.000
'0:08.830',-0.100,-0.097,-0.170,-0.054,98.000
'0:08.840',-0.140,-0.100,-0.183,-0.054,98.000
'0:08.850',-0.095,-0.103,-0.195,-0.054,98.000
'0:08.860',-0.130,-0.104,-0.210,-0.054,98.000
'0:08.870',-0.085,-0.106,-0.225,-0.054,98.000
'0:08.880',-0.120,-0.107,-0.239,-0.054,98.000
'0:08.890',-0.100,-0.109,-0.254,-0.054,98.000
'0:08.900',-0.120,-0.110,-0.269,-0.054,98.000
'0:08.910',-0.080,-0.113,-0.278,-0.054,98.000
'0:08.920',-0.100,-0.116,-0.287,-0.054,98.000
'0:08.930',-0.080,-0.118,-0.296,-0.054,98.000
'0:08.940',-0.080,-0.121,-0.305,-0.054,98.000
'0:08.950',-0.030,-0.124,-0.314,-0.054,98.000
'0:08.960',-0.050,-0.127,-0.326,-0.054,98.000
'0:08.970',-0.060,-0.129,-0.337,-0.054,98.000
'0:08.980',-0.045,-0.132,-0.349,-0.054,98.000
'0:08.990',-0.010,-0.134,-0.360,-0.054,98.000
'0:09.000',0.000,-0.137,-0.372,-0.054,98.000
'0:09.010',0.030,-0.140,-0.373,-0.054,98.000
'0:09.020',0.045,-0.142,-0.375,-0.054,98.000
'0:09.030',0.110,-0.145,-0.376,-0.054,98.000
'0:09.040',0.135,-0.147,-0.378,-0.054,98.000
'0:09.050',0.175,-0.150,-0.379,-0.054,98.000
'0:09.060',0.110,-0.155,-0.378,-0.053,98.000
'0:09.070',0.110,-0.161,-0.376,-0.053,98.000
'0:09.080',0.065,-0.167,-0.375,-0.053,98.000
'0:09.090',0.045,-0.172,-0.373,-0.053,98.000
'0:09.100',-0.020,-0.178,-0.372,-0.053,98.000
'0:09.110',0.000,-0.187,-0.373,-0.053,98.000
'0:09.120',-0.020,-0.196,-0.375,-0.053,98.000
'0:09.130',-0.030,-0.205,-0.376,-0.053,98.000
'0:09.140',0.000,-0.214,-0.377,-0.053,98.000
'0:09.150',-0.015,-0.224,-0.379,-0.053,98.000
'0:09.160',-0.030,-0.231,-0.383,-0.053,98.000
'0:09.170',-0.020,-0.239,-0.387,-0.053,98.000
'0:09.180',0.005,-0.247,-0.392,-0.053,98.000
'0:09.190',-0.020,-0.254,-0.396,-0.053,98.000
'0:09.200',0.005,-0.262,-0.400,-0.053,98.000
'0:09.210',-0.010,-0.267,-0.403,-0.053,98.000
'0:09.220',-0.010,-0.272,-0.406,-0.053,98.000
'0:09.230',0.000,-0.277,-0.410,-0.053,98.000
'0:09.240',0.020,-0.282,-0.413,-0.053,98.000
'0:09.250',0.005,-0.287,-0.416,-0.053,98.000
'0:09.260',0.030,-0.290,-0.415,-0.053,98.000
'0:09.270',0.065,-0.293,-0.414,-0.053,98.000
'0:09.280',0.000,-0.296,-0.413,-0.053,98.000
'0:09.290',-0.070,-0.299,-0.412,-0.053,98.000
'0:09.300',-0.020,-0.303,-0.411,-0.053,98.000
'0:09.310',0.025,-0.303,-0.404,-0.053,98.000
'0:09.320',0.020,-0.304,-0.398,-0.053,98.000
'0:09.330',-0.015,-0.304,-0.391,-0.052,98.000
'0:09.340',0.040,-0.305,-0.384,-0.052,98.000
'0:09.350',0.025,-0.305,-0.378,-0.052,98.000
'0:09.360',0.010,-0.307,-0.372,-0.053,98.000
'0:09.370',-0.045,-0.309,-0.365,-0.053,98.000
'0:09.380',-0.050,-0.311,-0.359,-0.053,98.000
'0:09.390',-0.035,-0.313,-0.353,-0.053,98.000
'0:09.400',-0.020,-0.315,-0.347,-0.053,98.000
'0:09.410',-0.015,-0.318,-0.346,-0.053,98.000
'0:09.420',-0.035,-0.320,-0.345,-0.053,98.000
'0:09.430',-0.020,-0.323,-0.344,-0.053,98.000
'0:09.440',-0.035,-0.326,-0.343,-0.053,98.000
'0:09.450',-0.030,-0.329,-0.342,-0.053,98.000
'0:09.460',-0.025,-0.331,-0.344,-0.053,98.000
'0:09.470',-0.015,-0.333,-0.345,-0.053,98.000
'0:09.480',-0.025,-0.336,-0.346,-0.053,98.000
'0:09.490',-0.015,-0.338,-0.347,-0.053,98.000
'0:09.500',-0.020,-0.341,-0.348,-0.053,98.000
'0:09.510',-0.045,-0.343,-0.349,-0.053,98.000
'0:09.520',-0.035,-0.346,-0.350,-0.053,98.000
'0:09.530',-0.030,-0.348,-0.351,-0.053,98.000
'0:09.540',-0.030,-0.351,-0.352,-0.053,98.000
'0:09.550',-0.020,-0.354,-0.353,-0.053,98.000
'0:09.560',-0.035,-0.355,-0.353,-0.053,98.000
'0:09.570',-0.030,-0.357,-0.353,-0.053,98.000
'0:09.580',-0.030,-0.359,-0.354,-0.053,98.000
'0:09.590',-0.020,-0.360,-0.354,-0.053,98.000
'0:09.600',-0.035,-0.362,-0.354,-0.053,98.000
'0:09.610',-0.055,-0.363,-0.355,-0.053,98.000
'0:09.620',-0.035,-0.364,-0.355,-0.053,98.000
'0:09.630',-0.040,-0.365,-0.356,-0.053,98.000
'0:09.640',-0.040,-0.366,-0.357,-0.053,98.000
'0:09.650',-0.045,-0.367,-0.358,-0.053,98.000
'0:09.660',-0.035,-0.368,-0.358,-0.053,98.000
'0:09.670',-0.045,-0.369,-0.358,-0.053,98.000
'0:09.680',-0.035,-0.369,-0.358,-0.053,98.000
'0:09.690',-0.045,-0.370,-0.358,-0.053,98.000
'0:09.700',-0.025,-0.370,-0.359,-0.053,98.000
'0:09.710',-0.045,-0.371,-0.359,-0.053,98.000
'0:09.720',-0.035,-0.371,-0.359,-0.053,98.000
'0:09.730',-0.040,-0.372,-0.359,-0.053,98.000
'0:09.740',-0.035,-0.372,-0.359,-0.053,98.000
'0:09.750',-0.065,-0.373,-0.359,-0.053,98.000
'0:09.760',-0.010,-0.371,-0.358,-0.053,98.000
'0:09.770',0.010,-0.369,-0.357,-0.053,98.000
'0:09.780',0.085,-0.367,-0.355,-0.053,98.000
'0:09.790',0.075,-0.365,-0.354,-0.053,98.000
'0:09.800',0.155,-0.364,-0.353,-0.053,98.000
'0:09.810',0.125,-0.362,-0.351,-0.053,98.000
'0:09.820',0.105,-0.360,-0.349,-0.053,98.000
'0:09.830',0.005,-0.358,-0.347,-0.053,98.000
'0:09.840',-0.050,-0.356,-0.345,-0.053,98.000
'0:09.850',-0.085,-0.354,-0.343,-0.053,98.000
'0:09.860',-0.055,-0.355,-0.343,-0.053,98.000
'0:09.870',-0.110,-0.355,-0.343,-0.053,98.000
'0:09.880',-0.070,-0.355,-0.343,-0.053,98.000
'0:09.890',-0.120,-0.356,-0.343,-0.053,98.000
'0:09.900',-0.075,-0.356,-0.343,-0.053,98.000
'0:09.910',-0.115,-0.356,-0.342,-0.053,98.000
'0:09.920',-0.075,-0.356,-0.342,-0.053,98.000
'0:09.930',-0.125,-0.356,-0.341,-0.053,98.000
'0:09.940',-0.080,-0.356,-0.341,-0.054,98.000
'0:09.950',-0.110,-0.356,-0.340,-0.054,98.000
'0:09.960',-0.055,-0.356,-0.340,-0.054,98.000
'0:09.970',-0.210,-0.356,-0.339,-0.054,98.000
'0:09.980',-0.395,-0.356,-0.339,-0.053,98.000
'0:09.990',-0.490,-0.356,-0.338,-0.053,98.000
'0:10.000',-0.285,-0.356,-0.338,-0.053,98.000
'0:10.010',1.575,-0.356,-0.337,-0.053,98.000
'0:10.020',1.535,-0.355,-0.337,-0.053,98.000
'0:10.030',0.820,-0.355,-0.337,-0.053,98.000
'0:10.040',-0.010,-0.355,-0.337,-0.053,98.000
'0:10.050',-0.015,-0.354,-0.336,-0.053,98.000
'0:10.060',0.040,-0.353,-0.336,-0.053,98.000
'0:10.070',-0.080,-0.352,-0.335,-0.053,98.000
'0:10.080',-0.055,-0.352,-0.334,-0.053,98.000
'0:10.090',-0.095,-0.351,-0.333,-0.053,98.000
'0:10.100',-0.085,-0.350,-0.332,-0.053,98.000
'0:10.110',-0.115,-0.350,-0.332,-0.053,98.000
'0:10.120',-0.060,-0.349,-0.332,-0.053,98.000
'0:10.130',-0.105,-0.349,-0.332,-0.053,98.000
'0:10.140',-0.065,-0.349,-0.332,-0.053,98.000
'0:10.150',-0.100,-0.349,-0.333,-0.053,98.000
'0:10.160',-0.055,-0.348,-0.332,-0.053,98.000
'0:10.170',-0.080,-0.347,-0.332,-0.053,98.000
'0:10.180',-0.050,-0.347,-0.332,-0.053,98.000
'0:10.190',-0.060,-0.346,-0.332,-0.053,98.000
'0:10.200',-0.035,-0.345,-0.331,-0.054,98.000
'0:10.210',-0.050,-0.344,-0.331,-0.054,98.000
'0:10.220',-0.030,-0.344,-0.330,-0.054,98.000
'0:10.230',-0.030,-0.343,-0.330,-0.054,98.000
'0:10.240',0.005,-0.342,-0.329,-0.054,98.000
'0:10.250',0.005,-0.342,-0.329,-0.054,98.000
'0:10.260',0.040,-0.341,-0.329,-0.053,98.000
'0:10.270',0.045,-0.340,-0.329,-0.053,98.000
'0:10.280',0.105,-0.339,-0.329,-0.053,98.000
'0:10.290',0.130,-0.338,-0.330,-0.053,98.000
'0:10.300',0.150,-0.337,-0.330,-0.053,98.000
'0:10.310',0.170,-0.335,-0.330,-0.054,98.000
'0:10.320',0.140,-0.334,-0.330,-0.054,98.000
'0:10.330',0.100,-0.332,-0.330,-0.054,98.000
'0:10.340',0.060,-0.331,-0.329,-0.054,98.000
'0:10.350',0.015,-0.330,-0.329,-0.054,98.000
'0:10.360',0.000,-0.329,-0.328,-0.054,98.000
'0:10.370',-0.020,-0.329,-0.328,-0.054,98.000
'0:10.380',-0.015,-0.328,-0.327,-0.054,98.000
'0:10.390',-0.020,-0.328,-0.326,-0.054,98.000
'0:10.400',-0.035,-0.327,-0.325,-0.054,98.000
'0:10.410',-0.030,-0.327,-0.324,-0.054,98.000
'0:10.420',-0.025,-0.327,-0.324,-0.053,98.000
'0:10.430',-0.015,-0.327,-0.323,-0.053,98.000
'0:10.440',-0.015,-0.327,-0.322,-0.053,98.000
'0:10.450',-0.015,-0.326,-0.321,-0.053,98.000
'0:10.460',-0.015,-0.327,-0.321,-0.053,98.000
'0:10.470',-0.010,-0.327,-0.322,-0.053,98.000
'0:10.480',0.000,-0.327,-0.323,-0.053,98.000
'0:10.490',-0.010,-0.327,-0.324,-0.053,98.000
'0:10.500',0.000,-0.327,-0.324,-0.054,98.000
'0:10.510',-0.005,-0.328,-0.325,-0.054,98.000
'0:10.520',-0.010,-0.328,-0.326,-0.054,98.000
'0:10.530',0.000,-0.328,-0.326,-0.053,98.000
'0:10.540',0.000,-0.329,-0.327,-0.053,98.000
'0:10.550',-0.005,-0.329,-0.328,-0.053,98.000
'0:10.560',-0.010,-0.328,-0.326,-0.053,98.000
'0:10.570',-0.005,-0.327,-0.325,-0.053,98.000
'0:10.580',0.000,-0.325,-0.323,-0.053,98.000
'0:10.590',0.000,-0.324,-0.322,-0.053,98.000
'0:10.600',0.000,-0.323,-0.321,-0.053,98.000
'0:10.610',0.000,-0.322,-0.320,-0.053,98.000
'0:10.620',0.000,-0.322,-0.319,-0.053,98.000
'0:10.630',-0.005,-0.321,-0.319,-0.053,98.000
'0:10.640',-0.010,-0.321,-0.318,-0.053,98.000
'0:10.650',-0.010,-0.320,-0.317,-0.054,98.000
'0:10.660',-0.020,-0.320,-0.317,-0.054,98.000
'0:10.670',0.000,-0.320,-0.317,-0.054,98.000
'0:10.680',-0.005,-0.321,-0.317,-0.054,98.000
'0:10.690',-0.010,-0.321,-0.317,-0.054,98.000
'0:10.700',-0.010,-0.321,-0.317,-0.054,98.000
'0:10.710',-0.015,-0.320,-0.316,-0.054,98.000
'0:10.720',-0.020,-0.319,-0.315,-0.054,98.000
'0:10.730',-0.015,-0.318,-0.314,-0.054,98.000
'0:10.740',-0.020,-0.317,-0.313,-0.054,98.000
'0:10.750',-0.015,-0.316,-0.312,-0.054,98.000
'0:10.760',-0.020,-0.316,-0.312,-0.054,98.000
'0:10.770',-0.020,-0.317,-0.312,-0.054,98.000
'0:10.780',-0.025,-0.317,-0.312,-0.054,98.000
'0:10.790',-0.025,-0.317,-0.312,-0.054,98.000
'0:10.800',-0.015,-0.317,-0.312,-0.054,98.000
'0:10.810',-0.015,-0.317,-0.312,-0.054,98.000
'0:10.820',-0.035,-0.316,-0.312,-0.054,98.000
'0:10.830',-0.025,-0.316,-0.311,-0.054,98.000
'0:10.840',-0.025,-0.315,-0.311,-0.054,98.000
'0:10.850',-0.025,-0.315,-0.311,-0.054,98.000
'0:10.860',-0.035,-0.315,-0.310,-0.054,98.000
'0:10.870',-0.030,-0.315,-0.310,-0.055,98.000
'0:10.880',-0.035,-0.315,-0.310,-0.055,98.000
'0:10.890',-0.035,-0.315,-0.309,-0.055,98.000
'0:10.900',-0.035,-0.315,-0.309,-0.055,98.000
'0:10.910',-0.030,-0.315,-0.309,-0.055,98.000
'0:10.920',-0.025,-0.316,-0.309,-0.055,98.000
'0:10.930',-0.040,-0.316,-0.309,-0.055,98.000
'0:10.940',-0.040,-0.317,-0.309,-0.055,98.000
'0:10.950',-0.045,-0.317,-0.309,-0.055,98.000
'0:10.960',-0.045,-0.316,-0.308,-0.055,98.000
'0:10.970',-0.045,-0.316,-0.307,-0.055,98.000
'0:10.980',-0.045,-0.316,-0.307,-0.055,98.000
'0:10.990',-0.050,-0.315,-0.306,-0.055,98.000
'0:11.000',-0.040,-0.315,-0.305,-0.055,98.000
'0:11.010',-0.055,-0.315,-0.306,-0.055,98.000
'0:11.020',-0.030,-0.316,-0.306,-0.055,98.000
'0:11.030',-0.055,-0.316,-0.306,-0.056,98.000
'0:11.040',-0.055,-0.317,-0.307,-0.056,98.000
'0:11.050',-0.035,-0.317,-0.307,-0.056,98.000
'0:11.060',-0.010,-0.316,-0.306,-0.055,98.000
'0:11.070',0.025,-0.315,-0.305,-0.055,98.000
'0:11.080',0.070,-0.313,-0.304,-0.055,98.000
'0:11.090',0.085,-0.312,-0.303,-0.055,98.000
'0:11.100',0.140,-0.311,-0.302,-0.055,98.000
'0:11.110',0.105,-0.311,-0.302,-0.055,98.000
'0:11.120',0.050,-0.310,-0.301,-0.055,98.000
'0:11.130',-0.030,-0.310,-0.301,-0.055,98.000
'0:11.140',-0.060,-0.309,-0.301,-0.055,98.000
'0:11.150',-0.080,-0.309,-0.300,-0.055,98.000
'0:11.160',-0.075,-0.309,-0.301,-0.055,98.000
'0:11.170',-0.085,-0.310,-0.301,-0.055,98.000
'0:11.180',-0.080,-0.310,-0.301,-0.055,98.000
'0:11.190',-0.095,-0.310,-0.302,-0.054,98.000
'0:11.200',-0.080,-0.311,-0.302,-0.054,98.000
'0:11.210',-0.095,-0.310,-0.301,-0.054,98.000
'0:11.220',-0.085,-0.310,-0.301,-0.054,98.000
'0:11.230',-0.095,-0.310,-0.300,-0.054,98.000
'0:11.240',-0.070,-0.310,-0.299,-0.054,98.000
'0:11.250',-0.090,-0.310,-0.299,-0.054,98.000
'0:11.260',-0.105,-0.310,-0.299,-0.054,98.000
'0:11.270',-0.230,-0.310,-0.299,-0.054,98.000
'0:11.280',-0.430,-0.310,-0.299,-0.054,98.000
'0:11.290',-0.630,-0.310,-0.299,-0.054,98.000
'0:11.300',0.525,-0.311,-0.299,-0.054,98.000
'0:11.310',1.990,-0.311,-0.299,-0.054,98.000
'0:11.320',1.165,-0.311,-0.299,-0.054,98.000
'0:11.330',0.330,-0.312,-0.299,-0.054,98.000
'0:11.340',-0.020,-0.312,-0.300,-0.054,98.000
'0:11.350',0.070,-0.312,-0.300,-0.054,98.000
'0:11.360',-0.030,-0.312,-0.299,-0.054,98.000
'0:11.370',-0.085,-0.311,-0.298,-0.054,98.000
'0:11.380',-0.075,-0.310,-0.297,-0.054,98.000
'0:11.390',-0.095,-0.309,-0.296,-0.054,98.000
'0:11.400',-0.075,-0.308,-0.295,-0.054,98.000
'0:11.410',-0.095,-0.308,-0.294,-0.053,98.000
'0:11.420',-0.080,-0.307,-0.294,-0.053,98.000
'0:11.430',-0.095,-0.307,-0.294,-0.053,98.000
'0:11.440',-0.080,-0.306,-0.293,-0.053,98.000
'0:11.450',-0.090,-0.306,-0.293,-0.053,98.000
'0:11.460',-0.055,-0.307,-0.294,-0.053,98.000
'0:11.470',-0.080,-0.308,-0.295,-0.053,98.000
'0:11.480',-0.055,-0.308,-0.296,-0.053,98.000
'0:11.490',-0.060,-0.309,-0.297,-0.053,98.000
'0:11.500',-0.035,-0.310,-0.299,-0.054,98.000
'0:11.510',-0.045,-0.310,-0.299,-0.054,98.000
'0:11.520',-0.025,-0.309,-0.299,-0.054,98.000
'0:11.530',-0.025,-0.309,-0.299,-0.054,98.000
'0:11.540',0.000,-0.309,-0.299,-0.054,98.000
'0:11.550',0.010,-0.308,-0.299,-0.054,98.000
'0:11.560',0.045,-0.308,-0.298,-0.054,98.000
'0:11.570',0.060,-0.307,-0.298,-0.054,98.000
'0:11.580',0.100,-0.307,-0.298,-0.054,98.000
'0:11.590',0.135,-0.307,-0.297,-0.054,98.000
'0:11.600',0.165,-0.306,-0.297,-0.054,98.000
'0:11.610',0.150,-0.306,-0.297,-0.054,98.000
'0:11.620',0.130,-0.306,-0.297,-0.054,98.000
'0:11.630',0.080,-0.305,-0.297,-0.054,98.000
'0:11.640',0.045,-0.305,-0.297,-0.054,98.000
'0:11.650',0.025,-0.304,-0.297,-0.054,98.000
'0:11.660',0.000,-0.304,-0.296,-0.054,98.000
'0:11.670',-0.010,-0.303,-0.295,-0.054,98.000
'0:11.680',-0.015,-0.302,-0.294,-0.054,98.000
'0:11.690',-0.005,-0.302,-0.293,-0.054,98.000
'0:11.700',-0.025,-0.301,-0.292,-0.054,98.000
'0:11.710',-0.015,-0.302,-0.293,-0.054,98.000
'0:11.720',-0.020,-0.303,-0.293,-0.054,98.000
'0:11.730',-0.010,-0.303,-0.294,-0.054,98.000
'0:11.740',-0.015,-0.304,-0.295,-0.054,98.000
'0:11.750',0.000,-0.305,-0.295,-0.054,98.000
'0:11.760',-0.010,-0.306,-0.296,-0.054,98.000
'0:11.770',0.000,-0.307,-0.297,-0.054,98.000
'0:11.780',0.000,-0.308,-0.298,-0.054,98.000
'0:11.790',-0.010,-0.309,-0.299,-0.054,98.000
'0:11.800',0.000,-0.310,-0.299,-0.054,98.000
'0:11.810',0.000,-0.310,-0.299,-0.054,98.000
'0:11.820',0.000,-0.309,-0.298,-0.054,98.000
'0:11.830',-0.010,-0.309,-0.297,-0.054,98.000
'0:11.840',0.000,-0.309,-0.296,-0.054,98.000
'0:11.850',-0.005,-0.308,-0.295,-0.054,98.000
'0:11.860',0.000,-0.307,-0.295,-0.054,98.000
'0:11.870',0.000,-0.306,-0.294,-0.054,98.000
'0:11.880',0.000,-0.304,-0.293,-0.054,98.000
'0:11.890',0.005,-0.303,-0.292,-0.054,98.000
'0:11.900',0.000,-0.302,-0.292,-0.054,98.000
'0:11.910',0.005,-0.301,-0.290,-0.054,98.000
'0:11.920',0.005,-0.300,-0.289,-0.054,98.000
'0:11.930',0.000,-0.298,-0.288,-0.054,98.000
'0:11.940',0.000,-0.297,-0.287,-0.054,98.000
'0:11.950',-0.010,-0.296,-0.286,-0.055,98.000
'0:11.960',-0.010,-0.297,-0.286,-0.055,98.000
'0:11.970',0.000,-0.297,-0.286,-0.055,98.000
'0:11.980',-0.005,-0.298,-0.286,-0.055,98.000
'0:11.990',-0.020,-0.299,-0.286,-0.055,98.000
'0:12.000',0.005,-0.300,-0.286,-0.055,98.000
'0:12.010',-0.005,-0.299,-0.286,-0.056,98.000
'0:12.020',-0.015,-0.299,-0.285,-0.056,98.000
'0:12.030',-0.010,-0.299,-0.285,-0.056,98.000
'0:12.040',-0.005,-0.299,-0.285,-0.056,98.000
'0:12.050',-0.015,-0.299,-0.285,-0.056,98.000
'0:12.060',-0.010,-0.299,-0.284,-0.056,98.000
'0:12.070',-0.020,-0.298,-0.283,-0.057,98.000
'0:12.080',-0.015,-0.297,-0.282,-0.057,98.000
'0:12.090',-0.025,-0.296,-0.281,-0.057,98.000
'0:12.100',-0.025,-0.295,-0.280,-0.057,98.000
'0:12.110',-0.015,-0.295,-0.281,-0.058,98.000
'0:12.120',-0.025,-0.295,-0.281,-0.058,98.000
'0:12.130',-0.025,-0.295,-0.281,-0.058,98.000
'0:12.140',-0.025,-0.295,-0.281,-0.058,98.000
'0:12.150',-0.030,-0.295,-0.281,-0.059,98.000
'0:12.160',-0.035,-0.294,-0.281,-0.059,98.000
'0:12.170',-0.035,-0.294,-0.280,-0.059,98.000
'0:12.180',-0.040,-0.293,-0.279,-0.059,98.000
'0:12.190',-0.035,-0.293,-0.279,-0.060,98.000
'0:12.200',-0.030,-0.292,-0.278,-0.060,98.000
'0:12.210',-0.035,-0.293,-0.278,-0.060,98.000
'0:12.220',-0.035,-0.293,-0.278,-0.061,98.000
'0:12.230',-0.025,-0.293,-0.277,-0.061,98.000
'0:12.240',-0.035,-0.293,-0.277,-0.062,98.000
'0:12.250',-0.040,-0.294,-0.276,-0.062,98.000
'0:12.260',-0.025,-0.294,-0.276,-0.063,98.000
'0:12.270',-0.030,-0.294,-0.277,-0.063,98.000
'0:12.280',-0.050,-0.294,-0.277,-0.064,98.000
'0:12.290',-0.040,-0.295,-0.277,-0.064,98.000
'0:12.300',-0.045,-0.295,-0.277,-0.065,98.000
'0:12.310',-0.045,-0.295,-0.277,-0.065,98.000
'0:12.320',-0.035,-0.295,-0.277,-0.066,98.000
'0:12.330',-0.065,-0.295,-0.277,-0.066,98.000
'0:12.340',-0.030,-0.295,-0.277,-0.067,98.000
'0:12.350',-0.055,-0.295,-0.277,-0.067,98.000
'0:12.360',-0.035,-0.295,-0.277,-0.067,98.000
'0:12.370',0.000,-0.295,-0.277,-0.068,98.000
'0:12.380',0.040,-0.295,-0.276,-0.068,98.000
'0:12.390',0.045,-0.295,-0.276,-0.069,98.000
'0:12.400',0.075,-0.295,-0.276,-0.069,98.000
'0:12.410',0.095,-0.296,-0.276,-0.069,98.000
'0:12.420',0.035,-0.296,-0.276,-0.069,98.000
'0:12.430',-0.030,-0.296,-0.276,-0.070,98.000
'0:12.440',-0.035,-0.296,-0.276,-0.070,98.000
'0:12.450',-0.065,-0.296,-0.276,-0.070,98.000
'0:12.460',-0.075,-0.296,-0.275,-0.070,98.000
'0:12.470',-0.100,-0.296,-0.275,-0.071,98.000
'0:12.480',-0.080,-0.296,-0.274,-0.071,98.000
'0:12.490',-0.095,-0.296,-0.274,-0.071,98.000
'0:12.500',-0.090,-0.296,-0.274,-0.072,98.000
'0:12.510',-0.095,-0.297,-0.274,-0.072,98.000
'0:12.520',-0.085,-0.297,-0.275,-0.072,98.000
'0:12.530',-0.085,-0.298,-0.275,-0.072,98.000
'0:12.540',-0.085,-0.299,-0.276,-0.073,98.000
'0:12.550',-0.075,-0.299,-0.276,-0.073,98.000
'0:12.560',-0.075,-0.299,-0.275,-0.073,98.000
'0:12.570',-0.130,-0.298,-0.275,-0.073,98.000
'0:12.580',-0.280,-0.297,-0.274,-0.074,98.000
'0:12.590',-0.425,-0.297,-0.273,-0.074,98.000
'0:12.600',-0.605,-0.296,-0.272,-0.074,98.000
'0:12.610',0.815,-0.295,-0.271,-0.074,98.000
'0:12.620',1.925,-0.294,-0.269,-0.075,98.000
'0:12.630',1.105,-0.293,-0.268,-0.075,98.000
'0:12.640',0.195,-0.292,-0.266,-0.075,98.000
'0:12.650',-0.015,-0.291,-0.265,-0.076,98.000
'0:12.660',0.070,-0.291,-0.265,-0.076,98.000
'0:12.670',-0.030,-0.291,-0.265,-0.077,98.000
'0:12.680',-0.080,-0.291,-0.265,-0.077,98.000
'0:12.690',-0.085,-0.292,-0.265,-0.077,98.000
'0:12.700',-0.080,-0.292,-0.265,-0.078,98.000
'0:12.710',-0.085,-0.291,-0.264,-0.078,98.000
'0:12.720',-0.080,-0.291,-0.263,-0.079,98.000
'0:12.730',-0.085,-0.290,-0.262,-0.079,98.000
'0:12.740',-0.080,-0.290,-0.261,-0.079,98.000
'0:12.750',-0.075,-0.289,-0.260,-0.080,98.000
'0:12.760',-0.070,-0.288,-0.260,-0.080,98.000
'0:12.770',-0.060,-0.288,-0.259,-0.081,98.000
'0:12.780',-0.060,-0.287,-0.259,-0.081,98.000
'0:12.790',-0.070,-0.287,-0.258,-0.082,98.000
'0:12.800',-0.045,-0.286,-0.257,-0.082,98.000
'0:12.810',-0.050,-0.285,-0.255,-0.083,98.000
'0:12.820',-0.060,-0.284,-0.253,-0.083,98.000
'0:12.830',-0.025,-0.283,-0.251,-0.084,98.000
'0:12.840',-0.020,-0.281,-0.249,-0.084,98.000
'0:12.850',-0.010,-0.280,-0.247,-0.084,98.000
'0:12.860',0.005,-0.277,-0.242,-0.085,98.000
'0:12.870',0.030,-0.274,-0.237,-0.085,98.000
'0:12.880',0.060,-0.270,-0.232,-0.086,98.000
'0:12.890',0.090,-0.267,-0.227,-0.086,98.000
'0:12.900',0.120,-0.264,-0.223,-0.086,98.000
'0:12.910',0.150,-0.260,-0.218,-0.087,98.000
'0:12.920',0.155,-0.257,-0.213,-0.087,98.000
'0:12.930',0.130,-0.253,-0.208,-0.087,98.000
'0:12.940',0.085,-0.250,-0.203,-0.088,98.000
'0:12.950',0.040,-0.247,-0.198,-0.088,98.000
'0:12.960',0.010,-0.244,-0.192,-0.088,98.000
'0:12.970',-0.005,-0.242,-0.186,-0.089,98.000
'0:12.980',0.000,-0.240,-0.180,-0.089,98.000
'0:12.990',-0.040,-0.237,-0.174,-0.089,98.000
'0:13.000',-0.005,-0.235,-0.168,-0.090,98.000
'0:13.010',-0.015,-0.235,-0.158,-0.090,98.000
'0:13.020',-0.025,-0.235,-0.148,-0.090,98.000
'0:13.030',-0.020,-0.234,-0.138,-0.091,98.000
'0:13.040',-0.020,-0.234,-0.128,-0.091,98.000
'0:13.050',-0.010,-0.234,-0.118,-0.091,98.000
'0:13.060',-0.020,-0.232,-0.109,-0.091,98.000
'0:13.070',0.000,-0.231,-0.099,-0.092,98.000
'0:13.080',-0.040,-0.229,-0.089,-0.092,98.000
'0:13.090',0.005,-0.227,-0.080,-0.092,98.000
'0:13.100',-0.010,-0.226,-0.070,-0.092,98.000
'0:13.110',-0.005,-0.222,-0.061,-0.092,98.000
'0:13.120',-0.005,-0.219,-0.052,-0.092,98.000
'0:13.130',-0.015,-0.216,-0.044,-0.092,98.000
'0:13.140',-0.010,-0.213,-0.035,-0.092,98.000
'0:13.150',-0.025,-0.210,-0.026,-0.093,98.000
'0:13.160',0.000,-0.208,-0.015,-0.093,98.000
'0:13.170',-0.005,-0.207,-0.004,-0.092,98.000
'0:13.180',-0.020,-0.205,0.007,-0.092,98.000
'0:13.190',-0.005,-0.203,0.018,-0.092,98.000
'0:13.200',-0.015,-0.202,0.029,-0.092,98.000
'0:13.210',-0.010,-0.200,0.037,-0.092,98.000
'0:13.220',-0.010,-0.198,0.045,-0.092,98.000
'0:13.230',-0.030,-0.196,0.053,-0.092,98.000
'0:13.240',-0.005,-0.193,0.061,-0.091,98.000
'0:13.250',-0.015,-0.191,0.069,-0.091,98.000
'0:13.260',-0.015,-0.189,0.075,-0.091,98.000
'0:13.270',-0.015,-0.187,0.081,-0.091,98.000
'0:13.280',-0.020,-0.185,0.087,-0.091,98.000
'0:13.290',-0.025,-0.183,0.094,-0.091,98.000
'0:13.300',-0.030,-0.181,0.100,-0.091,98.000
'0:13.310',-0.025,-0.178,0.111,-0.091,98.000
'0:13.320',-0.020,-0.176,0.123,-0.091,98.000
'0:13.330',-0.025,-0.173,0.134,-0.091,98.000
'0:13.340',-0.025,-0.170,0.146,-0.091,98.000
'0:13.350',-0.035,-0.168,0.157,-0.091,98.000
'0:13.360',-0.030,-0.165,0.168,-0.091,98.000
'0:13.370',-0.045,-0.163,0.179,-0.091,98.000
'0:13.380',-0.020,-0.160,0.190,-0.091,98.000
'0:13.390',-0.040,-0.158,0.200,-0.091,98.000
'0:13.400',-0.030,-0.155,0.211,-0.091,98.000
'0:13.410',-0.050,-0.154,0.219,-0.091,98.000
'0:13.420',-0.040,-0.153,0.226,-0.092,98.000
'0:13.430',-0.050,-0.152,0.234,-0.092,98.000
'0:13.440',-0.030,-0.151,0.242,-0.092,98.000
'0:13.450',-0.035,-0.150,0.249,-0.092,98.000
'0:13.460',-0.040,-0.149,0.257,-0.093,98.000
'0:13.470',-0.035,-0.147,0.265,-0.093,98.000
'0:13.480',-0.050,-0.146,0.274,-0.093,98.000
'0:13.490',-0.045,-0.144,0.282,-0.093,98.000
'0:13.500',-0.045,-0.143,0.290,-0.094,98.000
'0:13.510',-0.075,-0.140,0.296,-0.094,98.000
'0:13.520',-0.040,-0.137,0.301,-0.094,98.000
'0:13.530',-0.050,-0.134,0.307,-0.094,98.000
'0:13.540',-0.045,-0.131,0.313,-0.094,98.000
'0:13.550',-0.060,-0.128,0.319,-0.094,98.000
'0:13.560',-0.030,-0.126,0.325,-0.094,98.000
'0:13.570',0.015,-0.123,0.331,-0.094,98.000
'0:13.580',0.010,-0.121,0.338,-0.094,98.000
'0:13.590',0.080,-0.118,0.344,-0.094,98.000
'0:13.600',0.120,-0.116,0.350,-0.094,98.000
'0:13.610',0.110,-0.116,0.354,-0.094,98.000
'0:13.620',0.075,-0.116,0.358,-0.093,98.000
'0:13.630',-0.015,-0.116,0.362,-0.093,98.000
'0:13.640',-0.020,-0.116,0.366,-0.093,98.000
'0:13.650',-0.110,-0.116,0.369,-0.093,98.000
'0:13.660',-0.055,-0.113,0.378,-0.093,98.000
'0:13.670',-0.105,-0.111,0.386,-0.093,98.000
'0:13.680',-0.090,-0.108,0.395,-0.093,98.000
'0:13.690',-0.115,-0.106,0.403,-0.093,98.000
'0:13.700',-0.075,-0.103,0.411,-0.092,98.000
'0:13.710',-0.125,-0.101,0.427,-0.092,98.000
'0:13.720',-0.085,-0.098,0.442,-0.092,98.000
'0:13.730',-0.115,-0.096,0.457,-0.092,98.000
'0:13.740',-0.080,-0.093,0.473,-0.092,98.000
'0:13.750',-0.105,-0.090,0.488,-0.092,98.000
'0:13.760',-0.050,-0.089,0.497,-0.092,98.000
'0:13.770',-0.205,-0.088,0.506,-0.092,98.000
'0:13.780',-0.325,-0.086,0.516,-0.092,98.000
'0:13.790',-0.400,-0.085,0.525,-0.091,98.000
'0:13.800',-0.315,-0.084,0.534,-0.091,98.000
'0:13.810',1.350,-0.081,0.544,-0.091,98.000
'0:13.820',1.585,-0.079,0.554,-0.092,98.000
'0:13.830',0.845,-0.076,0.564,-0.092,98.000
'0:13.840',0.085,-0.074,0.574,-0.092,98.000
'0:13.850',0.005,-0.071,0.584,-0.092,98.000
'0:13.860',0.065,-0.070,0.596,-0.092,98.000
'0:13.870',-0.070,-0.069,0.607,-0.092,98.000
'0:13.880',-0.070,-0.068,0.619,-0.093,98.000
'0:13.890',-0.090,-0.067,0.630,-0.093,98.000
'0:13.900',-0.075,-0.066,0.642,-0.093,98.000
'0:13.910',-0.105,-0.066,0.646,-0.093,98.000
'0:13.920',-0.080,-0.066,0.651,-0.094,98.000
'0:13.930',-0.115,-0.065,0.655,-0.094,98.000
'0:13.940',-0.070,-0.065,0.660,-0.094,98.000
'0:13.950',-0.095,-0.065,0.664,-0.094,98.000
'0:13.960',-0.085,-0.064,0.668,-0.094,98.000
'0:13.970',-0.075,-0.062,0.672,-0.095,98.000
'0:13.980',-0.075,-0.061,0.676,-0.095,98.000
'0:13.990',-0.070,-0.059,0.679,-0.095,98.000
'0:14.000',-0.050,-0.058,0.683,-0.095,98.000
'0:14.010',-0.050,-0.055,0.687,-0.095,98.000
'0:14.020',-0.060,-0.052,0.691,-0.096,98.000
'0:14.030',-0.005,-0.049,0.695,-0.096,98.000
'0:14.040',-0.010,-0.046,0.699,-0.096,98.000
'0:14.050',-0.005,-0.043,0.703,-0.096,98.000
'0:14.060',0.025,-0.042,0.706,-0.096,98.000
'0:14.070',0.060,-0.041,0.710,-0.097,98.000
'0:14.080',0.075,-0.039,0.714,-0.097,98.000
'0:14.090',0.070,-0.038,0.717,-0.097,98.000
'0:14.100',0.160,-0.036,0.721,-0.097,98.000
'0:14.110',0.155,-0.036,0.722,-0.097,98.000
'0:14.120',0.135,-0.036,0.723,-0.097,98.000
'0:14.130',0.100,-0.036,0.724,-0.098,98.000
'0:14.140',0.050,-0.036,0.726,-0.098,98.000
'0:14.150',0.015,-0.036,0.727,-0.098,98.000
'0:14.160',-0.010,-0.037,0.727,-0.098,98.000
'0:14.170',-0.025,-0.037,0.728,-0.098,98.000
'0:14.180',-0.015,-0.038,0.728,-0.099,98.000
'0:14.190',-0.015,-0.038,0.728,-0.099,98.000
'0:14.200',-0.035,-0.039,0.729,-0.099,98.000
'0:14.210',-0.035,-0.039,0.730,-0.100,98.000
'0:14.220',-0.030,-0.038,0.731,-0.100,98.000
'0:14.230',-0.040,-0.038,0.733,-0.101,98.000
'0:14.240',-0.035,-0.038,0.734,-0.101,98.000
'0:14.250',-0.045,-0.037,0.735,-0.102,98.000
'0:14.260',-0.015,-0.038,0.732,-0.102,98.000
'0:14.270',-0.030,-0.038,0.730,-0.102,98.000
'0:14.280',-0.030,-0.038,0.727,-0.103,98.000
'0:14.290',-0.035,-0.038,0.724,-0.103,98.000
'0:14.300',-0.020,-0.039,0.722,-0.104,98.000
'0:14.310',-0.040,-0.038,0.720,-0.104,98.000
'0:14.320',-0.020,-0.038,0.718,-0.104,98.000
'0:14.330',-0.055,-0.038,0.716,-0.105,98.000
'0:14.340',-0.010,-0.038,0.714,-0.105,98.000
'0:14.350',-0.025,-0.037,0.713,-0.106,98.000
'0:14.360',-0.025,-0.038,0.710,-0.106,98.000
'0:14.370',-0.015,-0.038,0.707,-0.106,98.000
'0:14.380',-0.010,-0.038,0.705,-0.107,98.000
'0:14.390',-0.040,-0.039,0.702,-0.107,98.000
'0:14.400',-0.030,-0.039,0.699,-0.108,98.000
'0:14.410',-0.020,-0.041,0.696,-0.108,98.000
'0:14.420',-0.020,-0.042,0.693,-0.108,98.000
'0:14.430',-0.025,-0.044,0.690,-0.108,98.000
'0:14.440',-0.035,-0.045,0.687,-0.109,98.000
'0:14.450',-0.030,-0.047,0.684,-0.109,98.000
'0:14.460',-0.050,-0.046,0.682,-0.109,98.000
'0:14.470',-0.040,-0.045,0.680,-0.109,98.000
'0:14.480',-0.040,-0.044,0.678,-0.109,98.000
'0:14.490',-0.030,-0.043,0.676,-0.109,98.000
'0:14.500',-0.070,-0.042,0.674,-0.109,98.000
'0:14.510',-0.015,-0.043,0.670,-0.109,98.000
'0:14.520',-0.050,-0.045,0.665,-0.109,98.000
'0:14.530',-0.030,-0.046,0.660,-0.109,98.000
'0:14.540',-0.065,-0.048,0.656,-0.109,98.000
'0:14.550',-0.040,-0.049,0.651,-0.109,98.000
'0:14.560',-0.060,-0.050,0.649,-0.109,98.000
'0:14.570',-0.035,-0.051,0.646,-0.109,98.000
'0:14.580',-0.055,-0.052,0.644,-0.109,98.000
'0:14.590',-0.040,-0.053,0.642,-0.109,98.000
'0:14.600',-0.050,-0.053,0.639,-0.108,98.000
'0:14.610',-0.015,-0.054,0.636,-0.108,98.000
'0:14.620',-0.005,-0.054,0.633,-0.108,98.000
'0:14.630',0.070,-0.054,0.630,-0.108,98.000
'0:14.640',0.095,-0.054,0.627,-0.108,98.000
'0:14.650',0.160,-0.054,0.624,-0.109,98.000
'0:14.660',0.115,-0.057,0.619,-0.109,98.000
'0:14.670',0.085,-0.059,0.614,-0.109,98.000
'0:14.680',-0.005,-0.061,0.609,-0.109,98.000
'0:14.690',-0.045,-0.063,0.604,-0.109,98.000
'0:14.700',-0.075,-0.066,0.599,-0.109,98.000
'0:14.710',-0.095,-0.066,0.596,-0.109,98.000
'0:14.720',-0.095,-0.066,0.593,-0.110,98.000
'0:14.730',-0.075,-0.066,0.590,-0.110,98.000
'0:14.740',-0.105,-0.066,0.588,-0.110,98.000
'0:14.750',-0.080,-0.066,0.585,-0.110,98.000
'0:14.760',-0.115,-0.066,0.580,-0.111,98.000
'0:14.770',-0.075,-0.067,0.576,-0.112,98.000
'0:14.780',-0.110,-0.067,0.571,-0.113,98.000
'0:14.790',-0.080,-0.067,0.567,-0.114,98.000
'0:14.800',-0.110,-0.068,0.563,-0.115,98.000
'0:14.810',-0.065,-0.068,0.557,-0.118,98.000
'0:14.820',-0.195,-0.068,0.551,-0.121,98.000
'0:14.830',-0.340,-0.068,0.546,-0.123,98.000
'0:14.840',-0.385,-0.068,0.540,-0.126,98.000
'0:14.850',-0.250,-0.069,0.535,-0.129,98.000
'0:14.860',1.475,-0.069,0.530,-0.133,98.000
'0:14.870',1.480,-0.070,0.526,-0.137,98.000
'0:14.880',0.770,-0.071,0.521,-0.141,98.000
'0:14.890',0.060,-0.072,0.517,-0.145,98.000
'0:14.900',0.015,-0.072,0.512,-0.149,98.000
'0:14.910',0.045,-0.073,0.508,-0.153,98.000
'0:14.920',-0.065,-0.074,0.504,-0.157,98.000
'0:14.930',-0.050,-0.075,0.499,-0.160,98.000
'0:14.940',-0.115,-0.076,0.495,-0.164,98.000
'0:14.950',-0.065,-0.077,0.491,-0.167,98.000
'0:14.960',-0.105,-0.078,0.486,-0.170,98.000
'0:14.970',-0.075,-0.080,0.482,-0.173,98.000
'0:14.980',-0.105,-0.081,0.477,-0.175,98.000
'0:14.990',-0.070,-0.083,0.473,-0.178,98.000
'0:15.000',-0.095,-0.084,0.468,-0.181,98.000
'0:15.010',-0.060,-0.086,0.461,-0.183,98.000
'0:15.020',-0.085,-0.088,0.454,-0.185,98.000
'0:15.030',-0.040,-0.089,0.447,-0.188,98.000
'0:15.040',-0.065,-0.091,0.440,-0.190,98.000
'0:15.050',-0.045,-0.093,0.433,-0.192,98.000
'0:15.060',-0.045,-0.092,0.428,-0.194,98.000
'0:15.070',-0.035,-0.091,0.423,-0.197,98.000
'0:15.080',0.000,-0.090,0.418,-0.199,98.000
'0:15.090',0.010,-0.090,0.413,-0.201,98.000
'0:15.100',0.015,-0.089,0.408,-0.204,98.000
'0:15.110',0.060,-0.088,0.403,-0.206,98.000
'0:15.120',0.075,-0.088,0.397,-0.209,98.000
'0:15.130',0.110,-0.087,0.391,-0.212,98.000
'0:15.140',0.140,-0.086,0.385,-0.215,98.000
'0:15.150',0.175,-0.086,0.379,-0.218,98.000
'0:15.160',0.190,-0.086,0.375,-0.221,98.000
'0:15.170',0.160,-0.086,0.371,-0.224,98.000
'0:15.180',0.100,-0.086,0.367,-0.227,98.000
'0:15.190',0.070,-0.087,0.363,-0.230,98.000
'0:15.200',0.025,-0.087,0.359,-0.234,98.000
'0:15.210',0.005,-0.087,0.360,-0.238,98.000
'0:15.220',0.000,-0.086,0.362,-0.242,98.000
'0:15.230',0.000,-0.086,0.363,-0.246,98.000
'0:15.240',-0.005,-0.086,0.365,-0.251,98.000
'0:15.250',-0.015,-0.086,0.366,-0.255,98.000
'0:15.260',-0.010,-0.087,0.361,-0.260,98.000
'0:15.270',-0.015,-0.087,0.356,-0.265,98.000
'0:15.280',-0.015,-0.087,0.352,-0.270,98.000
'0:15.290',-0.010,-0.088,0.347,-0.276,98.000
'0:15.300',-0.010,-0.088,0.342,-0.281,98.000
'0:15.310',-0.005,-0.090,0.341,-0.286,98.000
'0:15.320',-0.010,-0.091,0.339,-0.292,98.000
'0:15.330',0.010,-0.092,0.338,-0.297,98.000
'0:15.340',0.000,-0.093,0.337,-0.303,98.000
'0:15.350',0.000,-0.094,0.336,-0.308,98.000
'0:15.360',-0.015,-0.094,0.333,-0.314,98.000
'0:15.370',-0.005,-0.093,0.329,-0.320,98.000
'0:15.380',0.000,-0.092,0.326,-0.326,98.000
'0:15.390',0.000,-0.091,0.323,-0.332,98.000
'0:15.400',-0.010,-0.091,0.320,-0.338,98.000
'0:15.410',0.000,-0.092,0.310,-0.344,98.000
'0:15.420',0.000,-0.093,0.299,-0.350,98.000
'0:15.430',-0.005,-0.094,0.288,-0.356,98.000
'0:15.440',0.000,-0.095,0.277,-0.362,98.000
'0:15.450',0.000,-0.096,0.266,-0.368,98.000
'0:15.460',-0.010,-0.098,0.265,-0.374,98.000
'0:15.470',-0.010,-0.099,0.264,-0.380,98.000
'0:15.480',0.000,-0.100,0.263,-0.386,98.000
'0:15.490',-0.005,-0.101,0.261,-0.392,98.000
'0:15.500',-0.005,-0.103,0.260,-0.398,98.000
'0:15.510',-0.015,-0.102,0.262,-0.404,98.000
'0:15.520',-0.005,-0.101,0.264,-0.410,98.000
'0:15.530',-0.005,-0.101,0.266,-0.416,98.000
'0:15.540',0.000,-0.100,0.268,-0.422,98.000
'0:15.550',-0.015,-0.100,0.270,-0.428,98.000
'0:15.560',-0.005,-0.101,0.266,-0.434,98.000
'0:15.570',-0.005,-0.101,0.263,-0.440,98.000
'0:15.580',-0.005,-0.102,0.260,-0.446,98.000
'0:15.590',-0.010,-0.103,0.256,-0.452,98.000
'0:15.600',-0.010,-0.104,0.253,-0.458,98.000
'0:15.610',-0.020,-0.104,0.248,-0.465,98.000
'0:15.620',-0.010,-0.104,0.244,-0.471,98.000
'0:15.630',-0.030,-0.104,0.239,-0.477,98.000
'0:15.640',-0.005,-0.105,0.234,-0.483,98.000
'0:15.650',-0.020,-0.105,0.230,-0.489,98.000
'0:15.660',-0.020,-0.105,0.228,-0.495,98.000
'0:15.670',-0.015,-0.106,0.227,-0.501,98.000
'0:15.680',-0.015,-0.107,0.225,-0.507,98.000
'0:15.690',-0.020,-0.107,0.224,-0.513,98.000
'0:15.700',-0.010,-0.108,0.222,-0.518,98.000
'0:15.710',-0.010,-0.108,0.221,-0.524,98.000
'0:15.720',-0.005,-0.109,0.219,-0.529,98.000
'0:15.730',-0.015,-0.110,0.217,-0.534,98.000
'0:15.740',-0.015,-0.110,0.216,-0.540,98.000
'0:15.750',-0.025,-0.111,0.214,-0.545,98.000
'0:15.760',-0.015,-0.112,0.212,-0.550,98.000
'0:15.770',-0.010,-0.112,0.211,-0.555,98.000
'0:15.780',-0.010,-0.113,0.209,-0.561,98.000
'0:15.790',-0.020,-0.113,0.207,-0.566,98.000
'0:15.800',-0.025,-0.114,0.205,-0.571,98.000
'0:15.810',-0.015,-0.114,0.203,-0.576,98.000
'0:15.820',-0.030,-0.114,0.201,-0.581,98.000
'0:15.830',-0.025,-0.115,0.199,-0.586,98.000
'0:15.840',-0.025,-0.115,0.197,-0.591,98.000
'0:15.850',-0.025,-0.115,0.195,-0.596,98.000
'0:15.860',-0.035,-0.116,0.193,-0.601,98.000
'0:15.870',-0.025,-0.116,0.190,-0.605,98.000
'0:15.880',-0.030,-0.116,0.188,-0.610,98.000
'0:15.890',-0.030,-0.117,0.185,-0.615,98.000
'0:15.900',-0.040,-0.117,0.183,-0.620,98.000
'0:15.910',-0.035,-0.119,0.180,-0.625,98.000
'0:15.920',-0.040,-0.121,0.177,-0.629,98.000
'0:15.930',-0.030,-0.122,0.174,-0.634,98.000
'0:15.940',-0.035,-0.124,0.171,-0.639,98.000
'0:15.950',-0.035,-0.126,0.169,-0.643,98.000
'0:15.960',-0.050,-0.126,0.167,-0.648,98.000
'0:15.970',-0.035,-0.127,0.165,-0.653,98.000
'0:15.980',-0.045,-0.127,0.164,-0.657,98.000
'0:15.990',-0.050,-0.128,0.162,-0.662,98.000
'0:16.000',-0.050,-0.128,0.160,-0.667,98.000
'0:16.010',-0.005,-0.128,0.159,-0.672,98.000
'0:16.020',0.005,-0.128,0.159,-0.676,98.000
'0:16.030',0.060,-0.128,0.158,-0.681,98.000
'0:16.040',0.045,-0.128,0.157,-0.686,98.000
'0:16.050',0.100,-0.129,0.156,-0.690,98.000
'0:16.060',0.035,-0.130,0.151,-0.695,98.000
'0:16.070',0.000,-0.132,0.145,-0.699,98.000
'0:16.080',-0.065,-0.134,0.139,-0.703,98.000
'0:16.090',-0.035,-0.136,0.133,-0.708,98.000
'0:16.100',-0.095,-0.137,0.128,-0.712,98.000
'0:16.110',-0.050,-0.138,0.122,-0.716,98.000
'0:16.120',-0.100,-0.139,0.117,-0.720,98.000
'0:16.130',-0.065,-0.140,0.112,-0.724,98.000
'0:16.140',-0.105,-0.141,0.107,-0.728,98.000
'0:16.150',-0.065,-0.142,0.102,-0.732,98.000
'0:16.160',-0.110,-0.142,0.099,-0.736,98.000
'0:16.170',-0.060,-0.141,0.097,-0.739,98.000
'0:16.180',-0.110,-0.140,0.095,-0.743,98.000
'0:16.190',-0.055,-0.139,0.092,-0.747,98.000
'0:16.200',-0.095,-0.138,0.090,-0.750,98.000
'0:16.210',-0.050,-0.139,0.087,-0.754,98.000
'0:16.220',-0.180,-0.139,0.084,-0.757,98.000
'0:16.230',-0.365,-0.139,0.082,-0.761,98.000
'0:16.240',-0.455,-0.140,0.079,-0.764,98.000
'0:16.250',-0.100,-0.140,0.076,-0.768,98.000
'0:16.260',1.700,-0.140,0.070,-0.771,98.000
'0:16.270',1.440,-0.141,0.064,-0.774,98.000
'0:16.280',0.715,-0.141,0.058,-0.778,98.000
'0:16.290',0.040,-0.141,0.051,-0.781,98.000
'0:16.300',0.070,-0.141,0.045,-0.785,98.000
'0:16.310',0.045,-0.141,0.039,-0.788,98.000
'0:16.320',-0.070,-0.142,0.033,-0.791,98.000
'0:16.330',-0.050,-0.142,0.027,-0.794,98.000
'0:16.340',-0.090,-0.143,0.021,-0.797,98.000
'0:16.350',-0.055,-0.143,0.015,-0.800,98.000
'0:16.360',-0.085,-0.145,0.009,-0.803,98.000
'0:16.370',-0.060,-0.147,0.003,-0.806,98.000
'0:16.380',-0.090,-0.150,-0.004,-0.808,98.000
'0:16.390',-0.050,-0.152,-0.010,-0.811,98.000
'0:16.400',-0.075,-0.154,-0.017,-0.814,98.000
'0:16.410',-0.040,-0.155,-0.025,-0.815,98.000
'0:16.420',-0.060,-0.156,-0.033,-0.817,98.000
'0:16.430',-0.040,-0.157,-0.041,-0.818,98.000
'0:16.440',-0.060,-0.158,-0.049,-0.820,98.000
'0:16.450',-0.040,-0.159,-0.057,-0.822,98.000
'0:16.460',-0.040,-0.159,-0.061,-0.822,98.000
'0:16.470',-0.025,-0.158,-0.065,-0.823,98.000
'0:16.480',-0.020,-0.158,-0.069,-0.824,98.000
'0:16.490',0.000,-0.157,-0.073,-0.824,98.000
'0:16.500',0.025,-0.157,-0.077,-0.825,98.000
'0:16.510',0.055,-0.156,-0.079,-0.826,98.000
'0:16.520',0.075,-0.156,-0.081,-0.826,98.000
'0:16.530',0.125,-0.155,-0.083,-0.827,98.000
'0:16.540',0.150,-0.155,-0.084,-0.828,98.000
'0:16.550',0.200,-0.154,-0.086,-0.829,98.000
'0:16.560',0.175,-0.154,-0.088,-0.830,98.000
'0:16.570',0.180,-0.155,-0.089,-0.832,98.000
'0:16.580',0.120,-0.155,-0.091,-0.833,98.000
'0:16.590',0.090,-0.155,-0.092,-0.835,98.000
'0:16.600',0.030,-0.155,-0.094,-0.837,98.000
'0:16.610',0.015,-0.155,-0.095,-0.839,98.000
'0:16.620',-0.010,-0.155,-0.096,-0.841,98.000
'0:16.630',0.000,-0.155,-0.097,-0.844,98.000
'0:16.640',-0.010,-0.155,-0.098,-0.846,98.000
'0:16.650',-0.005,-0.155,-0.099,-0.849,98.000
'0:16.660',-0.015,-0.155,-0.100,-0.852,98.000
'0:16.670',-0.005,-0.155,-0.100,-0.854,98.000
'0:16.680',-0.015,-0.155,-0.101,-0.857,98.000
'0:16.690',0.000,-0.155,-0.102,-0.860,98.000
'0:16.700',0.000,-0.156,-0.103,-0.863,98.000
'0:16.710',0.000,-0.157,-0.104,-0.865,98.000
'0:16.720',0.000,-0.159,-0.106,-0.868,98.000
'0:16.730',0.000,-0.160,-0.108,-0.871,98.000
'0:16.740',0.005,-0.162,-0.110,-0.874,98.000
'0:16.750',0.005,-0.164,-0.111,-0.876,98.000
'0:16.760',0.015,-0.164,-0.113,-0.879,98.000
'0:16.770',0.015,-0.163,-0.114,-0.882,98.000
'0:16.780',0.000,-0.163,-0.115,-0.884,98.000
'0:16.790',0.005,-0.163,-0.116,-0.887,98.000
'0:16.800',0.005,-0.163,-0.118,-0.890,98.000
'0:16.810',0.005,-0.163,-0.119,-0.892,98.000
'0:16.820',0.005,-0.163,-0.120,-0.894,98.000
'0:16.830',0.000,-0.163,-0.121,-0.897,98.000
'0:16.840',0.010,-0.163,-0.122,-0.899,98.000
'0:16.850',0.000,-0.163,-0.124,-0.901,98.000
'0:16.860',0.000,-0.164,-0.125,-0.904,98.000
'0:16.870',0.000,-0.165,-0.126,-0.906,98.000
'0:16.880',0.000,-0.166,-0.127,-0.908,98.000
'0:16.890',0.000,-0.167,-0.129,-0.910,98.000
'0:16.900',0.000,-0.168,-0.130,-0.912,98.000
'0:16.910',-0.015,-0.167,-0.130,-0.914,98.000
'0:16.920',-0.005,-0.166,-0.131,-0.915,98.000
'0:16.930',-0.010,-0.165,-0.131,-0.917,98.000
'0:16.940',0.000,-0.164,-0.131,-0.919,98.000
'0:16.950',-0.010,-0.163,-0.132,-0.921,98.000
'0:16.960',0.000,-0.164,-0.133,-0.922,98.000
'0:16.970',-0.020,-0.164,-0.134,-0.923,98.000
'0:16.980',0.000,-0.165,-0.136,-0.924,98.000
'0:16.990',-0.015,-0.166,-0.137,-0.926,98.000
'0:17.000',-0.010,-0.167,-0.138,-0.927,98.000
'0:17.010',-0.015,-0.168,-0.139,-0.928,98.000
'0:17.020',-0.005,-0.169,-0.139,-0.929,98.000
'0:17.030',-0.015,-0.170,-0.140,-0.929,98.000
'0:17.040',0.000,-0.171,-0.140,-0.930,98.000
'0:17.050',-0.020,-0.172,-0.141,-0.931,98.000
'0:17.060',-0.005,-0.172,-0.141,-0.932,98.000
'0:17.070',-0.020,-0.172,-0.142,-0.932,98.000
'0:17.080',-0.015,-0.173,-0.143,-0.933,98.000
'0:17.090',-0.020,-0.173,-0.143,-0.934,98.000
'0:17.100',-0.005,-0.173,-0.144,-0.934,98.000
'0:17.110',-0.020,-0.173,-0.145,-0.934,98.000
'0:17.120',-0.025,-0.174,-0.146,-0.935,98.000
'0:17.130',-0.030,-0.174,-0.147,-0.935,98.000
'0:17.140',-0.025,-0.174,-0.147,-0.935,98.000
'0:17.150',-0.020,-0.174,-0.148,-0.936,98.000
'0:17.160',-0.025,-0.175,-0.149,-0.936,98.000
'0:17.170',-0.025,-0.176,-0.150,-0.936,98.000
'0:17.180',-0.025,-0.176,-0.151,-0.936,98.000
'0:17.190',-0.020,-0.177,-0.152,-0.936,98.000
'0:17.200',-0.025,-0.177,-0.153,-0.936,98.000
'0:17.210',-0.020,-0.178,-0.153,-0.935,98.000
'0:17.220',-0.030,-0.179,-0.153,-0.935,98.000
'0:17.230',-0.025,-0.179,-0.153,-0.934,98.000
'0:17.240',-0.035,-0.180,-0.154,-0.934,98.000
'0:17.250',-0.030,-0.181,-0.154,-0.934,98.000
'0:17.260',-0.040,-0.181,-0.154,-0.933,98.000
'0:17.270',-0.035,-0.181,-0.154,-0.932,98.000
'0:17.280',-0.035,-0.181,-0.154,-0.931,98.000
'0:17.290',-0.035,-0.181,-0.154,-0.930,98.000
'0:17.300',-0.050,-0.181,-0.154,-0.929,98.000
'0:17.310',-0.045,-0.181,-0.154,-0.927,98.000
'0:17.320',-0.050,-0.181,-0.154,-0.926,98.000
'0:17.330',-0.035,-0.181,-0.154,-0.924,98.000
'0:17.340',-0.055,-0.181,-0.154,-0.922,98.000
'0:17.350',-0.035,-0.181,-0.154,-0.921,98.000
'0:17.360',-0.055,-0.181,-0.153,-0.918,98.000
'0:17.370',-0.035,-0.180,-0.152,-0.915,98.000
'0:17.380',-0.055,-0.179,-0.151,-0.912,98.000
'0:17.390',0.000,-0.179,-0.150,-0.909,98.000
'0:17.400',0.010,-0.178,-0.149,-0.906,98.000
'0:17.410',0.070,-0.178,-0.148,-0.901,98.000
'0:17.420',0.080,-0.178,-0.147,-0.897,98.000
'0:17.430',0.150,-0.178,-0.147,-0.892,98.000
'0:17.440',0.100,-0.178,-0.146,-0.888,98.000
'0:17.450',0.060,-0.178,-0.146,-0.884,98.000
'0:17.460',-0.050,-0.178,-0.144,-0.877,98.000
'0:17.470',-0.055,-0.177,-0.142,-0.871,98.000
'0:17.480',-0.095,-0.177,-0.140,-0.865,98.000
'0:17.490',-0.065,-0.177,-0.139,-0.858,98.000
'0:17.500',-0.125,-0.177,-0.137,-0.852,98.000
'0:17.510',-0.075,-0.175,-0.133,-0.844,98.000
'0:17.520',-0.115,-0.174,-0.130,-0.835,98.000
'0:17.530',-0.085,-0.173,-0.127,-0.827,98.000
'0:17.540',-0.120,-0.172,-0.123,-0.819,98.000
'0:17.550',-0.065,-0.170,-0.120,-0.811,98.000
'0:17.560',-0.100,-0.171,-0.118,-0.801,98.000
'0:17.570',-0.100,-0.171,-0.115,-0.791,98.000
'0:17.580',-0.110,-0.171,-0.113,-0.782,98.000
'0:17.590',-0.045,-0.172,-0.111,-0.772,98.000
'0:17.600',-0.200,-0.172,-0.109,-0.763,98.000
'0:17.610',-0.380,-0.171,-0.105,-0.752,98.000
'0:17.620',-0.465,-0.169,-0.101,-0.741,98.000
'0:17.630',-0.290,-0.168,-0.097,-0.730,98.000
'0:17.640',1.560,-0.166,-0.093,-0.720,98.000
'0:17.650',1.550,-0.164,-0.089,-0.709,98.000
'0:17.660',0.820,-0.163,-0.077,-0.697,98.000
'0:17.670',0.025,-0.162,-0.066,-0.686,98.000
'0:17.680',0.020,-0.161,-0.054,-0.674,98.000
'0:17.690',0.045,-0.160,-0.043,-0.663,98.000
'0:17.700',-0.070,-0.158,-0.032,-0.651,98.000
'0:17.710',-0.080,-0.159,-0.023,-0.639,98.000
'0:17.720',-0.095,-0.160,-0.014,-0.627,98.000
'0:17.730',-0.060,-0.161,-0.005,-0.615,98.000
'0:17.740',-0.115,-0.162,0.004,-0.603,98.000
'0:17.750',-0.055,-0.162,0.013,-0.591,98.000
'0:17.760',-0.100,-0.162,0.019,-0.579,98.000
'0:17.770',-0.060,-0.162,0.025,-0.567,98.000
'0:17.780',-0.105,-0.161,0.032,-0.555,98.000
'0:17.790',-0.055,-0.161,0.038,-0.543,98.000
'0:17.800',-0.070,-0.160,0.044,-0.531,98.000
'0:17.810',-0.045,-0.159,0.054,-0.519,98.000
'0:17.820',-0.075,-0.158,0.063,-0.508,98.000
'0:17.830',-0.035,-0.157,0.073,-0.496,98.000
'0:17.840',-0.060,-0.156,0.082,-0.485,98.000
'0:17.850',-0.035,-0.155,0.091,-0.473,98.000
'0:17.860',-0.035,-0.150,0.100,-0.462,98.000
'0:17.870',-0.005,-0.146,0.108,-0.451,98.000
'0:17.880',0.010,-0.141,0.116,-0.440,98.000
'0:17.890',0.025,-0.137,0.124,-0.429,98.000
'0:17.900',0.050,-0.132,0.133,-0.418,98.000
'0:17.910',0.060,-0.128,0.141,-0.407,98.000
'0:17.920',0.135,-0.124,0.149,-0.396,98.000
'0:17.930',0.165,-0.120,0.157,-0.386,98.000
'0:17.940',0.165,-0.116,0.165,-0.375,98.000
'0:17.950',0.160,-0.112,0.173,-0.365,98.000
'0:17.960',0.125,-0.109,0.184,-0.355,98.000
'0:17.970',0.055,-0.105,0.195,-0.345,98.000
'0:17.980',0.050,-0.102,0.205,-0.335,98.000
'0:17.990',0.010,-0.099,0.216,-0.325,98.000
'0:18.000',0.000,-0.095,0.227,-0.315,98.000
'0:18.010',-0.010,-0.090,0.252,-0.306,98.000
'0:18.020',-0.010,-0.085,0.278,-0.296,98.000
'0:18.030',-0.005,-0.079,0.303,-0.287,98.000
'0:18.040',-0.030,-0.074,0.329,-0.278,98.000
'0:18.050',-0.020,-0.069,0.354,-0.268,98.000
'0:18.060',-0.020,-0.066,0.377,-0.260,98.000
'0:18.070',-0.010,-0.063,0.400,-0.251,98.000
'0:18.080',-0.015,-0.060,0.423,-0.243,98.000
'0:18.090',-0.010,-0.057,0.446,-0.234,98.000
'0:18.100',-0.030,-0.054,0.468,-0.225,98.000
'0:18.110',-0.010,-0.052,0.477,-0.217,98.000
'0:18.120',-0.005,-0.050,0.486,-0.209,98.000
'0:18.130',-0.015,-0.048,0.494,-0.201,98.000
'0:18.140',-0.020,-0.046,0.503,-0.193,98.000
'0:18.150',0.025,-0.044,0.512,-0.185,98.000
'0:18.160',0.005,-0.040,0.523,-0.178,98.000
'0:18.170',0.040,-0.036,0.534,-0.170,98.000
'0:18.180',-0.005,-0.033,0.545,-0.163,98.000
'0:18.190',-0.025,-0.029,0.556,-0.155,98.000
'0:18.200',0.000,-0.025,0.567,-0.148,98.000
'0:18.210',0.030,-0.022,0.579,-0.141,98.000
'0:18.220',0.010,-0.019,0.592,-0.135,98.000
'0:18.230',0.120,-0.016,0.604,-0.128,98.000
'0:18.240',0.000,-0.013,0.616,-0.121,98.000
'0:18.250',0.000,-0.010,0.628,-0.115,98.000
'0:18.260',0.100,-0.006,0.644,-0.109,98.000
'0:18.270',-0.025,-0.003,0.660,-0.103,98.000
'0:18.280',0.000,-0.000,0.676,-0.097,98.000
'0:18.290',0.220,0.003,0.692,-0.090,98.000
'0:18.300',0.055,0.006,0.708,-0.084,98.000
'0:18.310',0.085,0.010,0.724,-0.079,98.000
'0:18.320',-0.125,0.015,0.740,-0.073,98.000
'0:18.330',0.030,0.020,0.755,-0.067,98.000
'0:18.340',-0.040,0.024,0.771,-0.061,98.000
'0:18.350',0.010,0.029,0.786,-0.056,98.000
'0:18.360',0.085,0.033,0.798,-0.051,98.000
'0:18.370',-0.050,0.037,0.810,-0.045,98.000
'0:18.380',0.160,0.041,0.822,-0.040,98.000
'0:18.390',-0.030,0.045,0.834,-0.035,98.000
'0:18.400',-0.145,0.049,0.846,-0.030,98.000
'0:18.410',-0.050,0.052,0.856,-0.025,98.000
'0:18.420',-0.025,0.054,0.866,-0.021,98.000
'0:18.430',-0.165,0.057,0.876,-0.016,98.000
'0:18.440',0.045,0.059,0.886,-0.012,98.000
'0:18.450',-0.045,0.062,0.896,-0.007,98.000
'0:18.460',-0.055,0.064,0.898,-0.003,98.000
'0:18.470',-0.070,0.065,0.900,0.001,98.000
'0:18.480',-0.100,0.067,0.902,0.005,98.000
'0:18.490',-0.115,0.069,0.904,0.009,98.000
'0:18.500',0.020,0.070,0.906,0.013,98.000
'0:18.510',-0.045,0.071,0.898,0.017,98.000
'0:18.520',0.055,0.073,0.890,0.020,98.000
'0:18.530',-0.135,0.074,0.882,0.024,98.000
'0:18.540',-0.300,0.075,0.874,0.027,98.000
'0:18.550',-0.075,0.077,0.867,0.031,98.000
'0:18.560',0.035,0.076,0.855,0.033,98.000
'0:18.570',0.175,0.075,0.843,0.036,98.000
'0:18.580',0.280,0.074,0.832,0.038,98.000
'0:18.590',0.155,0.073,0.820,0.041,98.000
'0:18.600',-0.190,0.072,0.808,0.043,98.000
'0:18.610',-0.080,0.071,0.801,0.042,98.000
'0:18.620',-0.125,0.069,0.793,0.041,98.000
'0:18.630',-0.130,0.068,0.786,0.040,98.000
'0:18.640',0.095,0.067,0.778,0.039,98.000
'0:18.650',-0.150,0.066,0.771,0.038,98.000
'0:18.660',-0.100,0.065,0.762,0.032,98.000
'0:18.670',-0.160,0.064,0.753,0.026,98.000
'0:18.680',-0.265,0.063,0.744,0.020,98.000
'0:18.690',-0.145,0.062,0.736,0.014,98.000
'0:18.700',-0.175,0.061,0.727,0.008,98.000
'0:18.710',-0.025,0.059,0.714,-0.001,98.000
'0:18.720',0.085,0.057,0.701,-0.010,98.000
'0:18.730',-0.185,0.055,0.688,-0.019,98.000
'0:18.740',-0.150,0.053,0.675,-0.028,98.000
'0:18.750',-0.135,0.051,0.662,-0.038,98.000
'0:18.760',-0.180,0.051,0.652,-0.048,98.000
'0:18.770',-0.400,0.051,0.642,-0.059,98.000
'0:18.780',-0.390,0.051,0.632,-0.070,98.000
'0:18.790',1.180,0.050,0.622,-0.081,98.000
'0:18.800',1.765,0.050,0.612,-0.092,98.000
'0:18.810',1.090,0.049,0.603,-0.103,98.000
'0:18.820',0.165,0.048,0.594,-0.115,98.000
'0:18.830',-0.025,0.048,0.584,-0.126,98.000
'0:18.840',0.100,0.047,0.575,-0.138,98.000
'0:18.850',-0.030,0.046,0.566,-0.149,98.000
'0:18.860',-0.045,0.045,0.555,-0.161,98.000
'0:18.870',0.020,0.044,0.545,-0.172,98.000
'0:18.880',0.080,0.043,0.534,-0.184,98.000
'0:18.890',-0.125,0.042,0.524,-0.195,98.000
'0:18.900',-0.105,0.041,0.513,-0.207,98.000
'0:18.910',0.000,0.041,0.504,-0.218,98.000
'0:18.920',-0.045,0.041,0.495,-0.230,98.000
'0:18.930',-0.135,0.041,0.486,-0.241,98.000
'0:18.940',0.075,0.042,0.477,-0.253,98.000
'0:18.950',-0.175,0.042,0.468,-0.264,98.000
'0:18.960',-0.105,0.040,0.459,-0.275,98.000
'0:18.970',0.010,0.039,0.449,-0.286,98.000
'0:18.980',-0.110,0.037,0.440,-0.297,98.000
'0:18.990',-0.075,0.036,0.431,-0.308,98.000
'0:19.000',0.080,0.034,0.422,-0.318,98.000
'0:19.010',-0.070,0.033,0.414,-0.329,98.000
'0:19.020',-0.010,0.031,0.406,-0.340,98.000
'0:19.030',0.080,0.030,0.398,-0.350,98.000
'0:19.040',0.020,0.028,0.391,-0.361,98.000
'0:19.050',0.025,0.027,0.383,-0.371,98.000
'0:19.060',0.160,0.025,0.374,-0.381,98.000
'0:19.070',0.200,0.023,0.365,-0.390,98.000
'0:19.080',0.205,0.021,0.356,-0.400,98.000
'0:19.090',0.270,0.020,0.347,-0.409,98.000
'0:19.100',0.150,0.018,0.338,-0.419,98.000
'0:19.110',0.095,0.017,0.328,-0.428,98.000
'0:19.120',0.140,0.015,0.319,-0.437,98.000
'0:19.130',0.010,0.014,0.310,-0.446,98.000
'0:19.140',-0.025,0.013,0.301,-0.455,98.000
'0:19.150',0.025,0.012,0.292,-0.464,98.000
'0:19.160',-0.080,0.011,0.286,-0.472,98.000
'0:19.170',-0.080,0.009,0.280,-0.480,98.000
'0:19.180',-0.010,0.008,0.274,-0.488,98.000
'0:19.190',-0.020,0.007,0.269,-0.497,98.000
'0:19.200',-0.055,0.006,0.263,-0.505,98.000
'0:19.210',0.015,0.004,0.254,-0.513,98.000
'0:19.220',-0.050,0.002,0.245,-0.520,98.000
'0:19.230',-0.010,-0.000,0.235,-0.528,98.000
'0:19.240',-0.085,-0.002,0.226,-0.536,98.000
'0:19.250',0.060,-0.004,0.217,-0.543,98.000
'0:19.260',-0.040,-0.003,0.211,-0.551,98.000
'0:19.270',-0.035,-0.002,0.205,-0.558,98.000
'0:19.280',0.040,-0.001,0.199,-0.565,98.000
'0:19.290',-0.055,0.000,0.193,-0.572,98.000
'0:19.300',-0.040,0.001,0.187,-0.579,98.000
'0:19.310',0.050,0.001,0.177,-0.586,98.000
'0:19.320',-0.030,0.001,0.168,-0.592,98.000
'0:19.330',-0.045,0.001,0.159,-0.599,98.000
'0:19.340',0.030,0.001,0.149,-0.605,98.000
'0:19.350',-0.020,0.001,0.140,-0.612,98.000
'0:19.360',-0.015,-0.001,0.127,-0.618,98.000
'0:19.370',0.095,-0.003,0.115,-0.624,98.000
'0:19.380',-0.075,-0.005,0.102,-0.630,98.000
'0:19.390',-0.035,-0.008,0.090,-0.636,98.000
'0:19.400',0.040,-0.010,0.077,-0.642,98.000
'0:19.410',-0.055,-0.010,0.074,-0.648,98.000
'0:19.420',-0.025,-0.010,0.071,-0.654,98.000
'0:19.430',-0.010,-0.011,0.068,-0.660,98.000
'0:19.440',-0.035,-0.011,0.065,-0.665,98.000
'0:19.450',0.090,-0.011,0.062,-0.671,98.000
'0:19.460',-0.090,-0.014,0.059,-0.676,98.000
'0:19.470',0.060,-0.016,0.055,-0.681,98.000
'0:19.480',-0.020,-0.018,0.052,-0.687,98.000
'0:19.490',-0.095,-0.021,0.049,-0.692,98.000
'0:19.500',0.125,-0.023,0.046,-0.697,98.000
'0:19.510',-0.105,-0.025,0.042,-0.701,98.000
'0:19.520',-0.075,-0.026,0.039,-0.706,98.000
'0:19.530',0.010,-0.028,0.035,-0.710,98.000
'0:19.540',-0.045,-0.030,0.032,-0.714,98.000
'0:19.550',-0.040,-0.031,0.028,-0.718,98.000
'0:19.560',-0.015,-0.032,0.025,-0.722,98.000
'0:19.570',-0.025,-0.032,0.022,-0.725,98.000
'0:19.580',0.075,-0.033,0.019,-0.728,98.000
'0:19.590',-0.120,-0.033,0.015,-0.731,98.000
'0:19.600',-0.005,-0.034,0.012,-0.734,98.000
'0:19.610',-0.085,-0.036,0.009,-0.737,98.000
'0:19.620',-0.025,-0.039,0.005,-0.739,98.000
'0:19.630',-0.050,-0.041,0.002,-0.742,98.000
'0:19.640',-0.050,-0.043,-0.001,-0.745,98.000
'0:19.650',-0.025,-0.046,-0.005,-0.747,98.000
'0:19.660',-0.010,-0.047,-0.008,-0.750,98.000
'0:19.670',-0.075,-0.049,-0.011,-0.752,98.000
'0:19.680',-0.005,-0.050,-0.014,-0.754,98.000
'0:19.690',-0.080,-0.052,-0.017,-0.757,98.000
'0:19.700',0.045,-0.054,-0.020,-0.759,98.000
'0:19.710',-0.095,-0.056,-0.023,-0.761,98.000
'0:19.720',-0.105,-0.058,-0.027,-0.763,98.000
'0:19.730',-0.025,-0.060,-0.030,-0.765,98.000
'0:19.740',-0.080,-0.063,-0.034,-0.767,98.000
'0:19.750',-0.035,-0.065,-0.037,-0.769,98.000
'0:19.760',-0.040,-0.067,-0.039,-0.771,98.000
'0:19.770',-0.060,-0.068,-0.040,-0.772,98.000
'0:19.780',-0.060,-0.070,-0.041,-0.774,98.000
'0:19.790',-0.045,-0.072,-0.043,-0.776,98.000
'0:19.800',-0.095,-0.073,-0.044,-0.777,98.000
'0:19.810',0.070,-0.074,-0.046,-0.778,98.000
'0:19.820',-0.045,-0.075,-0.049,-0.780,98.000
'0:19.830',0.050,-0.075,-0.051,-0.781,98.000
'0:19.840',0.055,-0.076,-0.053,-0.782,98.000
'0:19.850',0.050,-0.077,-0.055,-0.783,98.000
'0:19.860',0.065,-0.078,-0.058,-0.783,98.000
'0:19.870',0.040,-0.080,-0.061,-0.784,98.000
'0:19.880',-0.070,-0.081,-0.064,-0.784,98.000
'0:19.890',-0.050,-0.083,-0.067,-0.784,98.000
'0:19.900',0.000,-0.084,-0.070,-0.785,98.000
'0:19.910',-0.130,-0.085,-0.071,-0.785,98.000
'0:19.920',-0.155,-0.086,-0.073,-0.785,98.000
'0:19.930',-0.080,-0.087,-0.075,-0.785,98.000
'0:19.940',-0.125,-0.088,-0.077,-0.784,98.000
'0:19.950',-0.115,-0.088,-0.078,-0.784,98.000
'0:19.960',-0.060,-0.089,-0.080,-0.784,97.000
'0:19.970',-0.060,-0.089,-0.081,-0.784,97.000
'0:19.980',-0.165,-0.090,-0.082,-0.783,97.000
'0:19.990',-0.095,-0.090,-0.083,-0.783,97.000
'0:20.000',-0.110,-0.091,-0.084,-0.783,97.000
'0:20.010',-0.115,-0.092,-0.086,-0.782,97.000
'0:20.020',-0.130,-0.094,-0.088,-0.782,97.000
'0:20.030',-0.285,-0.096,-0.090,-0.781,97.000
'0:20.040',-0.400,-0.098,-0.092,-0.780,97.000
'0:20.050',-0.575,-0.100,-0.094,-0.780,97.000
'0:20.060',0.900,-0.102,-0.096,-0.779,97.000
'0:20.070',2.045,-0.104,-0.099,-0.778,97.000
'0:20.080',1.170,-0.106,-0.101,-0.778,97.000
'0:20.090',0.195,-0.108,-0.103,-0.777,97.000
'0:20.100',0.000,-0.110,-0.105,-0.776,97.000
'0:20.110',0.080,-0.110,-0.106,-0.775,97.000
'0:20.120',-0.030,-0.111,-0.107,-0.774,97.000
'0:20.130',-0.020,-0.111,-0.108,-0.773,97.000
'0:20.140',-0.030,-0.112,-0.109,-0.772,97.000
'0:20.150',-0.115,-0.112,-0.110,-0.771,97.000
'0:20.160',-0.015,-0.114,-0.112,-0.769,97.000
'0:20.170',-0.180,-0.116,-0.113,-0.768,97.000
'0:20.180',-0.105,-0.118,-0.115,-0.766,97.000
'0:20.190',-0.095,-0.120,-0.117,-0.765,97.000
'0:20.200',-0.080,-0.122,-0.118,-0.763,97.000
'0:20.210',-0.075,-0.123,-0.121,-0.761,97.000
'0:20.220',-0.065,-0.125,-0.123,-0.759,97.000
'0:20.230',-0.065,-0.127,-0.126,-0.758,97.000
'0:20.240',-0.055,-0.129,-0.128,-0.756,97.000
'0:20.250',-0.035,-0.131,-0.130,-0.754,97.000
'0:20.260',-0.035,-0.132,-0.132,-0.752,97.000
'0:20.270',-0.025,-0.132,-0.134,-0.750,97.000
'0:20.280',0.000,-0.133,-0.136,-0.748,97.000
'0:20.290',0.065,-0.134,-0.138,-0.747,97.000
'0:20.300',0.000,-0.135,-0.140,-0.745,97.000
'0:20.310',0.085,-0.136,-0.141,-0.743,97.000
'0:20.320',0.055,-0.137,-0.143,-0.741,97.000
'0:20.330',0.135,-0.138,-0.144,-0.739,97.000
'0:20.340',0.150,-0.139,-0.145,-0.738,97.000
'0:20.350',0.210,-0.140,-0.146,-0.736,97.000
'0:20.360',0.240,-0.140,-0.147,-0.734,97.000
'0:20.370',0.205,-0.141,-0.148,-0.733,97.000
'0:20.380',0.135,-0.141,-0.148,-0.731,97.000
'0:20.390',0.105,-0.142,-0.149,-0.730,97.000
'0:20.400',0.050,-0.142,-0.150,-0.728,97.000
'0:20.410',0.000,-0.143,-0.151,-0.727,97.000
'0:20.420',-0.025,-0.144,-0.152,-0.725,97.000
'0:20.430',-0.010,-0.145,-0.153,-0.724,97.000
'0:20.440',-0.030,-0.146,-0.154,-0.722,97.000
'0:20.450',-0.070,-0.147,-0.155,-0.721,97.000
'0:20.460',-0.005,-0.147,-0.155,-0.719,97.000
'0:20.470',-0.050,-0.148,-0.156,-0.717,97.000
'0:20.480',-0.030,-0.149,-0.156,-0.715,97.000
'0:20.490',-0.010,-0.149,-0.157,-0.714,97.000
'0:20.500',-0.025,-0.150,-0.157,-0.712,97.000
'0:20.510',0.010,-0.150,-0.157,-0.710,97.000
'0:20.520',-0.060,-0.150,-0.157,-0.708,97.000
'0:20.530',-0.075,-0.151,-0.158,-0.707,97.000
'0:20.540',0.015,-0.151,-0.158,-0.705,97.000
'0:20.550',-0.055,-0.151,-0.158,-0.703,97.000
'0:20.560',-0.035,-0.151,-0.159,-0.701,97.000
'0:20.570',-0.045,-0.152,-0.159,-0.699,97.000
'0:20.580',-0.010,-0.152,-0.160,-0.696,97.000
'0:20.590',-0.030,-0.152,-0.161,-0.694,97.000
'0:20.600',0.000,-0.153,-0.162,-0.692,97.000
'0:20.610',-0.015,-0.153,-0.162,-0.690,97.000
'0:20.620',-0.020,-0.153,-0.162,-0.688,97.000
'0:20.630',-0.025,-0.153,-0.162,-0.686,97.000
'0:20.640',-0.015,-0.153,-0.162,-0.683,97.000
'0:20.650',-0.025,-0.153,-0.162,-0.681,97.000
'0:20.660',-0.005,-0.154,-0.163,-0.679,97.000
'0:20.670',0.015,-0.154,-0.163,-0.677,97.000
'0:20.680',-0.040,-0.154,-0.164,-0.675,97.000
'0:20.690',-0.015,-0.155,-0.165,-0.673,97.000
'0:20.700',-0.020,-0.155,-0.165,-0.671,97.000
'0:20.710',-0.020,-0.155,-0.165,-0.669,97.000
'0:20.720',-0.035,-0.156,-0.165,-0.666,97.000
'0:20.730',0.040,-0.156,-0.165,-0.664,97.000
'0:20.740',-0.050,-0.156,-0.165,-0.662,97.000
'0:20.750',-0.040,-0.156,-0.165,-0.659,97.000
'0:20.760',0.000,-0.156,-0.164,-0.657,97.000
'0:20.770',-0.045,-0.155,-0.163,-0.654,97.000
'0:20.780',-0.050,-0.155,-0.162,-0.652,97.000
'0:20.790',0.000,-0.155,-0.161,-0.649,97.000
'0:20.800',-0.035,-0.155,-0.160,-0.646,97.000
'0:20.810',-0.035,-0.155,-0.160,-0.644,97.000
'0:20.820',0.000,-0.154,-0.160,-0.641,97.000
'0:20.830',-0.030,-0.154,-0.160,-0.638,97.000
'0:20.840',-0.055,-0.154,-0.160,-0.635,97.000
'0:20.850',-0.020,-0.154,-0.160,-0.633,97.000
'0:20.860',-0.035,-0.155,-0.159,-0.630,97.000
'0:20.870',-0.030,-0.155,-0.159,-0.627,97.000
'0:20.880',-0.035,-0.156,-0.159,-0.624,97.000
'0:20.890',-0.030,-0.156,-0.159,-0.621,97.000
'0:20.900',-0.045,-0.157,-0.158,-0.618,97.000
'0:20.910',-0.025,-0.156,-0.157,-0.614,97.000
'0:20.920',0.000,-0.156,-0.156,-0.611,97.000
'0:20.930',-0.035,-0.156,-0.155,-0.607,97.000
'0:20.940',0.015,-0.155,-0.154,-0.604,97.000
'0:20.950',-0.080,-0.155,-0.153,-0.600,97.000
'0:20.960',-0.060,-0.154,-0.151,-0.596,97.000
'0:20.970',-0.040,-0.153,-0.149,-0.592,97.000
'0:20.980',-0.055,-0.153,-0.148,-0.587,97.000
'0:20.990',-0.025,-0.152,-0.146,-0.583,97.000
'0:21.000',-0.030,-0.151,-0.144,-0.579,97.000
'0:21.010',-0.050,-0.151,-0.143,-0.574,97.000
'0:21.020',-0.030,-0.152,-0.142,-0.569,97.000
'0:21.030',-0.075,-0.152,-0.141,-0.564,97.000
'0:21.040',-0.045,-0.152,-0.140,-0.559,97.000
'0:21.050',-0.060,-0.152,-0.139,-0.554,97.000
'0:21.060',-0.050,-0.152,-0.139,-0.549,97.000
'0:21.070',-0.045,-0.152,-0.138,-0.543,97.000
'0:21.080',-0.010,-0.152,-0.138,-0.538,97.000
'0:21.090',-0.080,-0.152,-0.137,-0.532,97.000
'0:21.100',-0.050,-0.153,-0.136,-0.527,97.000
'0:21.110',-0.035,-0.152,-0.134,-0.521,97.000
'0:21.120',-0.070,-0.152,-0.132,-0.515,97.000
'0:21.130',-0.060,-0.151,-0.130,-0.509,97.000
'0:21.140',-0.065,-0.151,-0.128,-0.503,97.000
'0:21.150',-0.065,-0.150,-0.126,-0.497,97.000
'0:21.160',-0.050,-0.150,-0.124,-0.491,97.000
'0:21.170',-0.085,-0.151,-0.122,-0.485,97.000
'0:21.180',-0.050,-0.151,-0.120,-0.479,97.000
'0:21.190',-0.060,-0.151,-0.118,-0.472,97.000
'0:21.200',0.005,-0.151,-0.116,-0.466,97.000
'0:21.210',0.010,-0.150,-0.112,-0.459,97.000
'0:21.220',0.005,-0.150,-0.108,-0.453,97.000
'0:21.230',0.045,-0.149,-0.105,-0.446,97.000
'0:21.240',0.120,-0.149,-0.101,-0.440,97.000
'0:21.250',0.110,-0.148,-0.097,-0.433,97.000
'0:21.260',0.060,-0.145,-0.092,-0.427,97.000
'0:21.270',0.005,-0.143,-0.087,-0.420,97.000
'0:21.280',-0.075,-0.140,-0.083,-0.413,97.000
'0:21.290',-0.085,-0.137,-0.078,-0.406,97.000
'0:21.300',-0.085,-0.134,-0.073,-0.400,97.000
'0:21.310',-0.125,-0.133,-0.069,-0.393,97.000
'0:21.320',-0.075,-0.131,-0.065,-0.386,97.000
'0:21.330',-0.150,-0.130,-0.061,-0.379,97.000
'0:21.340',-0.120,-0.129,-0.057,-0.373,97.000
'0:21.350',-0.120,-0.127,-0.053,-0.366,97.000
'0:21.360',-0.110,-0.126,-0.044,-0.359,97.000
'0:21.370',-0.120,-0.124,-0.036,-0.352,97.000
'0:21.380',-0.105,-0.123,-0.028,-0.346,97.000
'0:21.390',-0.105,-0.121,-0.020,-0.339,97.000
'0:21.400',-0.090,-0.120,-0.011,-0.332,97.000
'0:21.410',-0.180,-0.118,-0.001,-0.325,97.000
'0:21.420',-0.310,-0.117,0.009,-0.319,97.000
'0:21.430',-0.435,-0.116,0.019,-0.312,97.000
'0:21.440',-0.505,-0.114,0.030,-0.305,97.000
'0:21.450',1.115,-0.113,0.040,-0.299,97.000
'0:21.460',1.920,-0.113,0.050,-0.292,97.000
'0:21.470',1.000,-0.114,0.059,-0.286,97.000
'0:21.480',0.125,-0.114,0.068,-0.279,97.000
'0:21.490',-0.030,-0.115,0.077,-0.272,97.000
'0:21.500',0.065,-0.115,0.087,-0.266,97.000
'0:21.510',-0.040,-0.114,0.097,-0.259,97.000
'0:21.520',-0.060,-0.113,0.107,-0.253,97.000
'0:21.530',-0.110,-0.112,0.117,-0.246,97.000
'0:21.540',-0.115,-0.111,0.127,-0.240,97.000
'0:21.550',-0.090,-0.110,0.137,-0.234,97.000
'0:21.560',-0.090,-0.108,0.148,-0.227,97.000
'0:21.570',-0.110,-0.107,0.159,-0.221,97.000
'0:21.580',-0.095,-0.105,0.170,-0.215,97.000
'0:21.590',-0.095,-0.103,0.181,-0.208,97.000
'0:21.600',-0.095,-0.102,0.191,-0.202,97.000
'0:21.610',-0.085,-0.099,0.200,-0.196,97.000
'0:21.620',-0.085,-0.097,0.208,-0.190,97.000
'0:21.630',-0.065,-0.094,0.216,-0.184,97.000
'0:21.640',-0.085,-0.092,0.224,-0.178,97.000
'0:21.650',-0.045,-0.089,0.233,-0.172,97.000
'0:21.660',-0.050,-0.086,0.238,-0.166,97.000
'0:21.670',-0.030,-0.083,0.244,-0.160,97.000
'0:21.680',-0.010,-0.080,0.250,-0.154,97.000
'0:21.690',0.025,-0.077,0.256,-0.149,97.000
'0:21.700',0.010,-0.075,0.262,-0.143,97.000
'0:21.710',0.075,-0.074,0.272,-0.137,97.000
'0:21.720',0.105,-0.074,0.281,-0.132,97.000
'0:21.730',0.070,-0.073,0.291,-0.126,97.000
'0:21.740',0.200,-0.073,0.301,-0.120,97.000
'0:21.750',0.220,-0.072,0.311,-0.115,97.000
'0:21.760',0.170,-0.070,0.319,-0.109,97.000
'0:21.770',0.125,-0.067,0.327,-0.104,97.000
'0:21.780',0.110,-0.065,0.336,-0.099,97.000
'0:21.790',0.015,-0.063,0.344,-0.093,97.000
'0:21.800',0.045,-0.060,0.352,-0.088,97.000
'0:21.810',0.005,-0.058,0.360,-0.083,97.000
'0:21.820',-0.015,-0.055,0.368,-0.078,97.000
'0:21.830',-0.020,-0.052,0.376,-0.073,97.000
'0:21.840',-0.015,-0.049,0.384,-0.068,97.000
'0:21.850',-0.050,-0.046,0.393,-0.063,97.000
'0:21.860',-0.010,-0.045,0.407,-0.058,97.000
'0:21.870',-0.020,-0.045,0.421,-0.053,97.000
'0:21.880',-0.020,-0.044,0.435,-0.048,97.000
'0:21.890',-0.015,-0.044,0.450,-0.043,97.000
'0:21.900',-0.055,-0.043,0.464,-0.039,97.000
'0:21.910',0.025,-0.041,0.474,-0.034,97.000
'0:21.920',-0.015,-0.038,0.485,-0.029,97.000
'0:21.930',-0.020,-0.035,0.496,-0.025,97.000
'0:21.940',-0.025,-0.032,0.507,-0.020,97.000
'0:21.950',-0.010,-0.030,0.517,-0.015,97.000
'0:21.960',-0.035,-0.027,0.526,-0.011,97.000
'0:21.970',-0.005,-0.024,0.534,-0.006,97.000
'0:21.980',0.000,-0.021,0.542,-0.002,97.000
'0:21.990',-0.005,-0.019,0.550,0.003,97.000
'0:22.000',0.050,-0.016,0.558,0.007,97.000
'0:22.010',-0.015,-0.014,0.570,0.011,97.000
'0:22.020',-0.005,-0.012,0.582,0.015,97.000
'0:22.030',-0.025,-0.010,0.594,0.020,97.000
'0:22.040',-0.030,-0.008,0.606,0.024,97.000
'0:22.050',-0.010,-0.006,0.618,0.028,97.000
'0:22.060',0.005,-0.003,0.626,0.032,97.000
'0:22.070',0.005,0.001,0.635,0.036,97.000
'0:22.080',-0.035,0.004,0.644,0.040,97.000
'0:22.090',-0.045,0.008,0.653,0.043,97.000
'0:22.100',-0.040,0.011,0.662,0.047,97.000
'0:22.110',-0.030,0.014,0.668,0.051,97.000
'0:22.120',-0.045,0.017,0.673,0.055,97.000
'0:22.130',-0.035,0.020,0.678,0.059,97.000
'0:22.140',-0.050,0.023,0.684,0.063,97.000
'0:22.150',-0.045,0.026,0.689,0.067,97.000
'0:22.160',-0.035,0.029,0.698,0.070,97.000
'0:22.170',-0.055,0.032,0.707,0.073,97.000
'0:22.180',-0.040,0.035,0.716,0.076,97.000
'0:22.190',-0.035,0.038,0.725,0.080,97.000
'0:22.200',-0.035,0.041,0.734,0.083,97.000
'0:22.210',-0.055,0.043,0.740,0.086,97.000
'0:22.220',-0.070,0.045,0.747,0.089,97.000
'0:22.230',-0.060,0.047,0.753,0.092,97.000
'0:22.240',-0.050,0.049,0.760,0.095,97.000
'0:22.250',-0.065,0.051,0.767,0.098,97.000
'0:22.260',-0.110,0.053,0.762,0.100,97.000
'0:22.270',-0.040,0.055,0.757,0.103,97.000
'0:22.280',-0.020,0.058,0.752,0.106,97.000
'0:22.290',-0.010,0.060,0.747,0.109,97.000
'0:22.300',-0.060,0.062,0.742,0.111,97.000
'0:22.310',-0.125,0.064,0.732,0.114,97.000
'0:22.320',-0.120,0.065,0.723,0.116,97.000
'0:22.330',-0.065,0.066,0.713,0.118,97.000
'0:22.340',-0.010,0.067,0.703,0.121,97.000
'0:22.350',-0.045,0.069,0.694,0.123,97.000
'0:22.360',-0.110,0.068,0.685,0.124,97.000
'0:22.370',0.005,0.068,0.676,0.125,97.000
'0:22.380',-0.040,0.068,0.667,0.125,97.000
'0:22.390',0.050,0.067,0.659,0.126,97.000
'0:22.400',0.125,0.067,0.650,0.127,97.000
'0:22.410',0.135,0.066,0.642,0.125,97.000
'0:22.420',0.160,0.066,0.634,0.123,97.000
'0:22.430',0.095,0.065,0.626,0.121,97.000
'0:22.440',-0.025,0.065,0.618,0.119,97.000
'0:22.450',-0.135,0.064,0.610,0.117,97.000
'0:22.460',-0.140,0.062,0.601,0.112,97.000
'0:22.470',-0.075,0.059,0.592,0.107,97.000
'0:22.480',-0.110,0.056,0.583,0.103,97.000
'0:22.490',-0.005,0.054,0.574,0.098,97.000
'0:22.500',-0.180,0.051,0.565,0.093,97.000
'0:22.510',-0.155,0.050,0.558,0.087,97.000
'0:22.520',-0.135,0.048,0.551,0.081,97.000
'0:22.530',-0.095,0.046,0.544,0.074,97.000
'0:22.540',-0.110,0.044,0.536,0.068,97.000
'0:22.550',-0.115,0.043,0.529,0.062,97.000
'0:22.560',-0.105,0.041,0.523,0.054,97.000
'0:22.570',-0.130,0.039,0.518,0.047,97.000
'0:22.580',-0.230,0.037,0.512,0.040,97.000
'0:22.590',-0.430,0.035,0.506,0.033,97.000
'0:22.600',-0.440,0.034,0.501,0.025,97.000
'0:22.610',-0.010,0.031,0.494,0.017,97.000
'0:22.620',1.655,0.029,0.487,0.009,97.000
'0:22.630',1.520,0.026,0.481,0.001,97.000
'0:22.640',0.710,0.023,0.474,-0.007,97.000
'0:22.650',-0.080,0.021,0.467,-0.015,97.000
'0:22.660',0.010,0.018,0.458,-0.023,97.000
'0:22.670',0.035,0.016,0.448,-0.031,97.000
'0:22.680',-0.135,0.013,0.439,-0.040,97.000
'0:22.690',-0.060,0.010,0.429,-0.048,97.000
'0:22.700',-0.115,0.008,0.420,-0.056,97.000
'0:22.710',-0.125,0.006,0.405,-0.065,97.000
'0:22.720',-0.160,0.004,0.391,-0.073,97.000
'0:22.730',-0.080,0.002,0.376,-0.081,97.000
'0:22.740',-0.135,-0.000,0.362,-0.089,97.000
'0:22.750',0.000,-0.002,0.348,-0.098,97.000
'0:22.760',-0.130,-0.003,0.336,-0.106,97.000
'0:22.770',-0.085,-0.005,0.324,-0.114,97.000
'0:22.780',-0.070,-0.006,0.312,-0.122,97.000
'0:22.790',-0.050,-0.007,0.301,-0.130,97.000
'0:22.800',-0.065,-0.008,0.289,-0.138,97.000
'0:22.810',-0.060,-0.010,0.278,-0.145,97.000
'0:22.820',-0.045,-0.011,0.267,-0.153,97.000
'0:22.830',0.000,-0.013,0.256,-0.161,97.000
'0:22.840',0.000,-0.015,0.245,-0.168,97.000
'0:22.850',0.040,-0.017,0.235,-0.176,97.000
'0:22.860',0.080,-0.017,0.220,-0.183,97.000
'0:22.870',0.140,-0.017,0.205,-0.190,97.000
'0:22.880',0.105,-0.017,0.190,-0.197,97.000
'0:22.890',0.150,-0.017,0.175,-0.204,97.000
'0:22.900',0.230,-0.017,0.160,-0.211,97.000
'0:22.910',0.220,-0.016,0.150,-0.217,97.000
'0:22.920',0.260,-0.016,0.140,-0.224,97.000
'0:22.930',0.315,-0.016,0.129,-0.231,97.000
'0:22.940',0.085,-0.016,0.119,-0.237,97.000
'0:22.950',0.095,-0.016,0.109,-0.244,97.000
'0:22.960',0.125,-0.016,0.103,-0.250,97.000
'0:22.970',-0.030,-0.017,0.098,-0.256,97.000
'0:22.980',0.065,-0.018,0.092,-0.262,97.000
'0:22.990',-0.030,-0.018,0.087,-0.268,97.000
'0:23.000',-0.055,-0.019,0.081,-0.274,97.000
'0:23.010',0.055,-0.020,0.074,-0.279,97.000
'0:23.020',-0.050,-0.022,0.067,-0.285,97.000
'0:23.030',-0.030,-0.024,0.059,-0.290,97.000
'0:23.040',0.010,-0.026,0.052,-0.296,97.000
'0:23.050',0.000,-0.027,0.045,-0.301,97.000
'0:23.060',0.100,-0.030,0.039,-0.306,97.000
'0:23.070',-0.110,-0.033,0.033,-0.311,97.000
'0:23.080',-0.040,-0.035,0.027,-0.316,97.000
'0:23.090',0.015,-0.038,0.021,-0.321,97.000
'0:23.100',-0.015,-0.040,0.016,-0.326,97.000
'0:23.110',-0.025,-0.042,0.013,-0.331,97.000
'0:23.120',0.005,-0.044,0.010,-0.336,97.000
'0:23.130',0.030,-0.046,0.007,-0.340,97.000
'0:23.140',-0.020,-0.047,0.004,-0.345,97.000
'0:23.150',0.025,-0.049,0.001,-0.350,97.000
'0:23.160',-0.025,-0.050,-0.002,-0.354,97.000
'0:23.170',0.000,-0.051,-0.004,-0.359,97.000
'0:23.180',0.065,-0.053,-0.007,-0.363,97.000
'0:23.190',-0.060,-0.054,-0.009,-0.368,97.000
'0:23.200',0.010,-0.055,-0.012,-0.373,97.000
'0:23.210',0.010,-0.056,-0.015,-0.377,97.000
'0:23.220',-0.030,-0.058,-0.018,-0.381,97.000
'0:23.230',0.010,-0.059,-0.021,-0.386,97.000
'0:23.240',0.020,-0.060,-0.024,-0.390,97.000
'0:23.250',0.005,-0.062,-0.027,-0.394,97.000
'0:23.260',0.015,-0.064,-0.030,-0.398,97.000
'0:23.270',-0.040,-0.065,-0.032,-0.401,97.000
'0:23.280',-0.005,-0.067,-0.035,-0.404,97.000
'0:23.290',0.005,-0.069,-0.037,-0.408,97.000
'0:23.300',0.015,-0.070,-0.040,-0.411,97.000
'0:23.310',-0.015,-0.072,-0.042,-0.414,97.000
'0:23.320',0.000,-0.073,-0.044,-0.417,97.000
'0:23.330',-0.015,-0.074,-0.045,-0.420,97.000
'0:23.340',-0.005,-0.075,-0.047,-0.423,97.000
'0:23.350',0.005,-0.076,-0.049,-0.426,97.000
'0:23.360',-0.010,-0.078,-0.052,-0.428,97.000
'0:23.370',0.030,-0.079,-0.055,-0.431,97.000
'0:23.380',-0.015,-0.081,-0.057,-0.433,97.000
'0:23.390',0.070,-0.083,-0.060,-0.436,97.000
'0:23.400',-0.060,-0.085,-0.062,-0.439,97.000
'0:23.410',-0.055,-0.086,-0.064,-0.441,97.000
'0:23.420',-0.010,-0.087,-0.066,-0.443,97.000
'0:23.430',0.000,-0.089,-0.068,-0.446,97.000
'0:23.440',-0.005,-0.090,-0.070,-0.448,97.000
'0:23.450',0.035,-0.091,-0.072,-0.450,97.000
'0:23.460',-0.045,-0.091,-0.073,-0.453,97.000
'0:23.470',-0.040,-0.091,-0.075,-0.455,97.000
'0:23.480',0.000,-0.091,-0.076,-0.457,97.000
'0:23.490',-0.030,-0.092,-0.077,-0.459,97.000
'0:23.500',0.025,-0.092,-0.078,-0.462,97.000
'0:23.510',-0.060,-0.095,-0.081,-0.464,97.000
'0:23.520',0.000,-0.097,-0.084,-0.467,97.000
'0:23.530',0.030,-0.100,-0.087,-0.469,97.000
'0:23.540',-0.075,-0.103,-0.090,-0.471,97.000
'0:23.550',-0.045,-0.106,-0.093,-0.474,97.000
'0:23.560',-0.005,-0.108,-0.095,-0.476,97.000
'0:23.570',-0.050,-0.110,-0.098,-0.478,97.000
'0:23.580',-0.015,-0.113,-0.100,-0.480,97.000
'0:23.590',0.025,-0.115,-0.102,-0.482,97.000
'0:23.600',-0.065,-0.117,-0.105,-0.484,97.000
'0:23.610',-0.070,-0.117,-0.105,-0.486,97.000
'0:23.620',-0.010,-0.116,-0.105,-0.487,97.000
'0:23.630',-0.060,-0.116,-0.106,-0.489,97.000
'0:23.640',-0.040,-0.116,-0.106,-0.490,97.000
'0:23.650',-0.020,-0.115,-0.106,-0.492,97.000
'0:23.660',-0.065,-0.116,-0.108,-0.493,97.000
'0:23.670',-0.045,-0.117,-0.111,-0.494,97.000
'0:23.680',-0.020,-0.118,-0.113,-0.495,97.000
'0:23.690',-0.075,-0.119,-0.115,-0.496,97.000
'0:23.700',-0.060,-0.121,-0.117,-0.497,97.000
'0:23.710',-0.045,-0.123,-0.120,-0.497,97.000
'0:23.720',0.005,-0.125,-0.122,-0.498,97.000
'0:23.730',-0.045,-0.128,-0.125,-0.498,97.000
'0:23.740',-0.040,-0.130,-0.127,-0.498,97.000
'0:23.750',0.000,-0.132,-0.130,-0.499,97.000
'0:23.760',0.050,-0.133,-0.131,-0.498,97.000
'0:23.770',0.075,-0.133,-0.132,-0.498,97.000
'0:23.780',0.155,-0.134,-0.133,-0.498,97.000
'0:23.790',0.155,-0.134,-0.134,-0.498,97.000
'0:23.800',0.085,-0.135,-0.135,-0.498,97.000
'0:23.810',-0.010,-0.135,-0.136,-0.497,97.000
'0:23.820',-0.025,-0.135,-0.137,-0.496,97.000
'0:23.830',-0.080,-0.135,-0.138,-0.496,97.000
'0:23.840',-0.050,-0.135,-0.139,-0.495,97.000
'0:23.850',-0.100,-0.135,-0.140,-0.495,97.000
'0:23.860',-0.090,-0.137,-0.141,-0.494,97.000
'0:23.870',-0.095,-0.139,-0.142,-0.493,97.000
'0:23.880',-0.085,-0.141,-0.143,-0.492,97.000
'0:23.890',-0.085,-0.142,-0.145,-0.491,97.000
'0:23.900',-0.080,-0.144,-0.146,-0.491,97.000
'0:23.910',-0.115,-0.145,-0.147,-0.490,97.000
'0:23.920',-0.060,-0.146,-0.148,-0.489,97.000
'0:23.930',-0.100,-0.146,-0.148,-0.488,97.000
'0:23.940',-0.040,-0.147,-0.149,-0.487,97.000
'0:23.950',-0.205,-0.148,-0.150,-0.486,97.000
'0:23.960',-0.335,-0.148,-0.150,-0.485,97.000
'0:23.970',-0.410,-0.149,-0.151,-0.484,97.000
'0:23.980',-0.350,-0.149,-0.151,-0.483,97.000
'0:23.990',1.445,-0.149,-0.152,-0.482,97.000
'0:24.000',1.885,-0.149,-0.152,-0.481,97.000
'0:24.010',0.940,-0.150,-0.153,-0.481,97.000
'0:24.020',0.035,-0.150,-0.153,-0.480,97.000
'0:24.030',-0.025,-0.151,-0.153,-0.479,97.000
'0:24.040',0.045,-0.151,-0.154,-0.478,97.000
'0:24.050',-0.060,-0.152,-0.154,-0.477,97.000
'0:24.060',-0.060,-0.154,-0.156,-0.476,97.000
'0:24.070',-0.085,-0.155,-0.157,-0.475,97.000
'0:24.080',-0.030,-0.157,-0.159,-0.474,97.000
'0:24.090',-0.105,-0.158,-0.160,-0.473,97.000
'0:24.100',-0.065,-0.160,-0.162,-0.472,97.000
'0:24.110',-0.085,-0.161,-0.164,-0.470,97.000
'0:24.120',-0.065,-0.162,-0.166,-0.469,97.000
'0:24.130',-0.075,-0.163,-0.168,-0.468,97.000
'0:24.140',-0.040,-0.165,-0.170,-0.467,97.000
'0:24.150',-0.070,-0.166,-0.172,-0.466,97.000
'0:24.160',-0.035,-0.166,-0.172,-0.464,97.000
'0:24.170',0.000,-0.166,-0.173,-0.463,97.000
'0:24.180',-0.065,-0.165,-0.174,-0.462,97.000
'0:24.190',-0.030,-0.165,-0.174,-0.460,97.000
'0:24.200',-0.025,-0.165,-0.175,-0.459,97.000
'0:24.210',-0.020,-0.165,-0.175,-0.457,97.000
'0:24.220',0.010,-0.165,-0.175,-0.456,97.000
'0:24.230',0.040,-0.165,-0.175,-0.454,97.000
'0:24.240',0.070,-0.165,-0.174,-0.453,97.000
'0:24.250',0.100,-0.165,-0.174,-0.451,97.000
'0:24.260',0.130,-0.165,-0.175,-0.450,97.000
'0:24.270',0.190,-0.166,-0.176,-0.449,97.000
'0:24.280',0.215,-0.167,-0.177,-0.447,97.000
'0:24.290',0.195,-0.167,-0.178,-0.446,97.000
'0:24.300',0.220,-0.168,-0.179,-0.445,97.000
'0:24.310',0.155,-0.168,-0.179,-0.443,97.000
'0:24.320',0.105,-0.167,-0.179,-0.442,97.000
'0:24.330',0.045,-0.167,-0.179,-0.441,97.000
'0:24.340',0.025,-0.166,-0.179,-0.439,97.000
'0:24.350',0.010,-0.166,-0.180,-0.438,97.000
'0:24.360',0.000,-0.165,-0.179,-0.436,97.000
'0:24.370',-0.035,-0.165,-0.178,-0.435,97.000
'0:24.380',-0.050,-0.164,-0.177,-0.433,97.000
'0:24.390',-0.015,-0.164,-0.176,-0.432,97.000
'0:24.400',-0.055,-0.163,-0.175,-0.430,97.000
'0:24.410',-0.060,-0.164,-0.175,-0.429,97.000
'0:24.420',0.000,-0.165,-0.176,-0.428,97.000
'0:24.430',-0.055,-0.166,-0.177,-0.427,97.000
'0:24.440',-0.045,-0.167,-0.178,-0.426,97.000
'0:24.450',-0.030,-0.168,-0.179,-0.425,97.000
'0:24.460',0.005,-0.168,-0.178,-0.424,97.000
'0:24.470',-0.045,-0.168,-0.178,-0.422,97.000
'0:24.480',-0.025,-0.167,-0.178,-0.421,97.000
'0:24.490',-0.035,-0.167,-0.178,-0.420,97.000
'0:24.500',-0.035,-0.167,-0.177,-0.419,97.000
'0:24.510',-0.025,-0.167,-0.177,-0.418,97.000
'0:24.520',-0.015,-0.167,-0.177,-0.417,97.000
'0:24.530',0.000,-0.167,-0.177,-0.416,97.000
'0:24.540',-0.030,-0.166,-0.176,-0.415,97.000
'0:24.550',-0.030,-0.166,-0.176,-0.414,97.000
'0:24.560',-0.035,-0.167,-0.176,-0.413,97.000
'0:24.570',-0.025,-0.167,-0.176,-0.412,97.000
'0:24.580',-0.020,-0.167,-0.177,-0.411,97.000
'0:24.590',-0.020,-0.167,-0.177,-0.410,97.000
'0:24.600',-0.030,-0.167,-0.177,-0.409,97.000
'0:24.610',-0.010,-0.167,-0.176,-0.408,97.000
'0:24.620',-0.015,-0.166,-0.175,-0.408,97.000
'0:24.630',-0.020,-0.165,-0.174,-0.407,97.000
'0:24.640',-0.015,-0.164,-0.173,-0.406,97.000
'0:24.650',-0.015,-0.164,-0.172,-0.405,97.000
'0:24.660',-0.040,-0.164,-0.172,-0.404,97.000
'0:24.670',-0.045,-0.164,-0.173,-0.403,97.000
'0:24.680',-0.025,-0.164,-0.173,-0.402,97.000
'0:24.690',-0.045,-0.165,-0.173,-0.401,97.000
'0:24.700',-0.030,-0.165,-0.174,-0.401,97.000
'0:24.710',-0.035,-0.166,-0.175,-0.400,97.000
'0:24.720',-0.025,-0.168,-0.175,-0.398,97.000
'0:24.730',0.005,-0.169,-0.176,-0.397,97.000
'0:24.740',-0.055,-0.170,-0.177,-0.396,97.000
'0:24.750',-0.040,-0.172,-0.178,-0.395,97.000
'0:24.760',-0.035,-0.171,-0.178,-0.394,97.000
'0:24.770',-0.030,-0.171,-0.177,-0.393,97.000
'0:24.780',0.000,-0.170,-0.177,-0.391,97.000
'0:24.790',-0.055,-0.170,-0.177,-0.390,97.000
'0:24.800',-0.025,-0.169,-0.176,-0.389,97.000
'0:24.810',0.010,-0.169,-0.176,-0.387,97.000
'0:24.820',-0.055,-0.168,-0.176,-0.386,97.000
'0:24.830',-0.035,-0.167,-0.175,-0.384,97.000
'0:24.840',-0.015,-0.166,-0.175,-0.383,97.000
'0:24.850',-0.040,-0.166,-0.174,-0.381,97.000
'0:24.860',-0.045,-0.166,-0.175,-0.380,97.000
'0:24.870',-0.005,-0.167,-0.175,-0.378,97.000
'0:24.880',-0.055,-0.167,-0.175,-0.376,97.000
'0:24.890',-0.055,-0.168,-0.175,-0.375,97.000
'0:24.900',-0.055,-0.168,-0.175,-0.373,97.000
'0:24.910',-0.015,-0.168,-0.176,-0.371,97.000
'0:24.920',-0.035,-0.168,-0.176,-0.369,97.000
'0:24.930',-0.060,-0.169,-0.176,-0.367,97.000
'0:24.940',0.000,-0.169,-0.177,-0.365,97.000
'0:24.950',-0.055,-0.169,-0.177,-0.363,97.000
'0:24.960',-0.070,-0.169,-0.177,-0.361,97.000
'0:24.970',-0.050,-0.169,-0.177,-0.359,97.000
'0:24.980',-0.065,-0.170,-0.177,-0.357,97.000
'0:24.990',-0.060,-0.170,-0.178,-0.355,97.000
'0:25.000',-0.040,-0.170,-0.178,-0.353,97.000
'0:25.010',-0.055,-0.170,-0.177,-0.351,97.000
'0:25.020',-0.035,-0.170,-0.177,-0.349,97.000
'0:25.030',-0.050,-0.169,-0.176,-0.347,97.000
'0:25.040',-0.075,-0.169,-0.176,-0.345,97.000
'0:25.050',-0.035,-0.169,-0.175,-0.343,97.000
'0:25.060',-0.070,-0.168,-0.174,-0.341,97.000
'0:25.070',-0.075,-0.167,-0.173,-0.339,97.000
'0:25.080',-0.070,-0.166,-0.172,-0.337,97.000
'0:25.090',-0.055,-0.165,-0.172,-0.335,97.000
'0:25.100',-0.080,-0.164,-0.171,-0.333,97.000
'0:25.110',-0.060,-0.164,-0.171,-0.330,97.000
'0:25.120',-0.070,-0.164,-0.171,-0.328,97.000
'0:25.130',-0.020,-0.164,-0.171,-0.326,97.000
'0:25.140',0.000,-0.164,-0.171,-0.324,97.000
'0:25.150',0.050,-0.164,-0.171,-0.322,97.000
'0:25.160',0.065,-0.164,-0.171,-0.320,97.000
'0:25.170',0.165,-0.165,-0.171,-0.318,97.000
'0:25.180',0.045,-0.165,-0.171,-0.315,97.000
'0:25.190',0.035,-0.165,-0.171,-0.313,97.000
'0:25.200',-0.050,-0.165,-0.171,-0.311,97.000
'0:25.210',-0.060,-0.165,-0.170,-0.309,97.000
'0:25.220',-0.085,-0.165,-0.170,-0.307,97.000
'0:25.230',-0.090,-0.165,-0.169,-0.304,97.000
'0:25.240',-0.120,-0.165,-0.169,-0.302,97.000
'0:25.250',-0.135,-0.164,-0.168,-0.300,97.000
'0:25.260',-0.140,-0.165,-0.169,-0.298,97.000
'0:25.270',-0.110,-0.165,-0.170,-0.296,97.000
'0:25.280',-0.145,-0.166,-0.171,-0.294,97.000
'0:25.290',-0.110,-0.166,-0.172,-0.292,97.000
'0:25.300',-0.120,-0.167,-0.173,-0.290,97.000
'0:25.310',-0.110,-0.168,-0.173,-0.288,97.000
'0:25.320',-0.135,-0.169,-0.174,-0.286,97.000
'0:25.330',-0.095,-0.169,-0.175,-0.283,97.000
'0:25.340',-0.260,-0.170,-0.176,-0.281,97.000
'0:25.350',-0.505,-0.171,-0.177,-0.279,97.000
'0:25.360',-0.580,-0.171,-0.176,-0.277,97.000
'0:25.370',0.200,-0.170,-0.175,-0.275,97.000
'0:25.380',2.040,-0.170,-0.174,-0.273,97.000
'0:25.390',1.380,-0.169,-0.173,-0.270,97.000
'0:25.400',0.535,-0.168,-0.172,-0.268,97.000
'0:25.410',-0.080,-0.169,-0.172,-0.266,97.000
'0:25.420',-0.020,-0.170,-0.173,-0.264,97.000
'0:25.430',-0.015,-0.170,-0.173,-0.262,97.000
'0:25.440',-0.130,-0.171,-0.174,-0.260,97.000
'0:25.450',-0.090,-0.171,-0.174,-0.258,97.000
'0:25.460',-0.125,-0.173,-0.175,-0.256,97.000
'0:25.470',-0.075,-0.174,-0.177,-0.254,97.000
'0:25.480',-0.160,-0.176,-0.178,-0.252,97.000
'0:25.490',-0.100,-0.178,-0.179,-0.250,97.000
'0:25.500',-0.130,-0.180,-0.180,-0.248,97.000
'0:25.510',-0.085,-0.179,-0.179,-0.246,97.000
'0:25.520',-0.120,-0.178,-0.178,-0.243,97.000
'0:25.530',-0.075,-0.177,-0.178,-0.241,97.000
'0:25.540',-0.095,-0.176,-0.177,-0.239,97.000
'0:25.550',-0.030,-0.175,-0.176,-0.236,97.000
'0:25.560',-0.085,-0.173,-0.174,-0.233,97.000
'0:25.570',-0.075,-0.171,-0.172,-0.231,97.000
'0:25.580',-0.060,-0.169,-0.171,-0.228,97.000
'0:25.590',-0.035,-0.167,-0.169,-0.225,97.000
'0:25.600',-0.030,-0.165,-0.167,-0.222,97.000
'0:25.610',0.000,-0.164,-0.165,-0.219,97.000
'0:25.620',0.010,-0.164,-0.163,-0.215,97.000
'0:25.630',0.080,-0.163,-0.161,-0.212,97.000
'0:25.640',0.080,-0.162,-0.159,-0.209,97.000
'0:25.650',0.090,-0.161,-0.157,-0.205,97.000
'0:25.660',0.180,-0.161,-0.156,-0.201,97.000
'0:25.670',0.190,-0.161,-0.154,-0.197,97.000
'0:25.680',0.200,-0.161,-0.153,-0.193,97.000
'0:25.690',0.185,-0.161,-0.152,-0.189,97.000
'0:25.700',0.140,-0.161,-0.151,-0.185,97.000
'0:25.710',0.090,-0.161,-0.148,-0.181,97.000
'0:25.720',0.055,-0.160,-0.145,-0.176,97.000
'0:25.730',0.040,-0.159,-0.142,-0.172,97.000
'0:25.740',-0.030,-0.159,-0.139,-0.167,97.000
'0:25.750',0.000,-0.158,-0.136,-0.163,97.000
'0:25.760',0.000,-0.157,-0.132,-0.158,97.000
'0:25.770',0.005,-0.157,-0.128,-0.152,97.000
'0:25.780',-0.015,-0.156,-0.125,-0.147,97.000
'0:25.790',-0.005,-0.155,-0.121,-0.142,97.000
'0:25.800',-0.020,-0.154,-0.117,-0.137,97.000
'0:25.810',0.005,-0.153,-0.113,-0.131,97.000
'0:25.820',0.010,-0.151,-0.110,-0.125,97.000
'0:25.830',-0.045,-0.150,-0.106,-0.119,97.000
'0:25.840',0.000,-0.149,-0.102,-0.113,97.000
'0:25.850',-0.020,-0.148,-0.099,-0.107,97.000
'0:25.860',0.005,-0.145,-0.095,-0.101,97.000
'0:25.870',-0.005,-0.143,-0.091,-0.095,97.000
'0:25.880',-0.005,-0.140,-0.086,-0.088,97.000
'0:25.890',0.025,-0.137,-0.082,-0.082,97.000
'0:25.900',0.010,-0.135,-0.078,-0.076,97.000
'0:25.910',-0.010,-0.133,-0.074,-0.069,97.000
'0:25.920',-0.010,-0.131,-0.070,-0.063,97.000
'0:25.930',-0.005,-0.129,-0.066,-0.056,97.000
'0:25.940',-0.010,-0.128,-0.062,-0.050,97.000
'0:25.950',0.010,-0.126,-0.058,-0.043,97.000
'0:25.960',-0.020,-0.123,-0.053,-0.037,97.000
'0:25.970',0.010,-0.121,-0.047,-0.030,97.000
'0:25.980',-0.025,-0.119,-0.042,-0.024,97.000
'0:25.990',0.000,-0.116,-0.036,-0.017,97.000
'0:26.000',0.035,-0.114,-0.031,-0.010,97.000
'0:26.010',-0.020,-0.111,-0.025,-0.004,97.000
'0:26.020',-0.010,-0.107,-0.020,0.003,97.000
'0:26.030',0.040,-0.104,-0.015,0.009,97.000
'0:26.040',-0.040,-0.100,-0.010,0.015,97.000
'0:26.050',-0.020,-0.097,-0.005,0.022,97.000
'0:26.060',-0.045,-0.096,0.009,0.028,97.000
'0:26.070',-0.010,-0.096,0.022,0.034,97.000
'0:26.080',-0.020,-0.096,0.036,0.041,97.000
'0:26.090',-0.020,-0.095,0.050,0.047,97.000
'0:26.100',-0.020,-0.095,0.063,0.053,97.000
'0:26.110',0.020,-0.095,0.080,0.059,97.000
'0:26.120',-0.005,-0.095,0.096,0.065,97.000
'0:26.130',-0.050,-0.095,0.112,0.071,97.000
'0:26.140',-0.010,-0.095,0.129,0.077,97.000
'0:26.150',-0.035,-0.095,0.145,0.083,97.000
'0:26.160',-0.040,-0.094,0.153,0.089,97.000
'0:26.170',-0.025,-0.093,0.161,0.094,97.000
'0:26.180',-0.030,-0.092,0.169,0.100,97.000
'0:26.190',-0.020,-0.091,0.177,0.106,97.000
'0:26.200',-0.015,-0.090,0.185,0.111,97.000
'0:26.210',-0.010,-0.089,0.194,0.117,97.000
'0:26.220',-0.035,-0.087,0.204,0.122,97.000
'0:26.230',-0.045,-0.086,0.213,0.127,97.000
'0:26.240',0.005,-0.084,0.223,0.133,97.000
'0:26.250',-0.065,-0.083,0.233,0.138,97.000
'0:26.260',-0.040,-0.080,0.241,0.143,97.000
'0:26.270',-0.025,-0.078,0.250,0.148,97.000
'0:26.280',-0.030,-0.075,0.259,0.153,97.000
'0:26.290',-0.060,-0.072,0.267,0.158,97.000
'0:26.300',-0.050,-0.070,0.276,0.164,97.000
'0:26.310',-0.070,-0.067,0.281,0.168,97.000
'0:26.320',-0.030,-0.064,0.287,0.173,97.000
'0:26.330',-0.065,-0.061,0.292,0.178,97.000
'0:26.340',-0.010,-0.058,0.298,0.183,97.000
'0:26.350',-0.095,-0.055,0.304,0.187,97.000
'0:26.360',-0.040,-0.053,0.311,0.192,97.000
'0:26.370',-0.065,-0.052,0.318,0.196,97.000
'0:26.380',-0.075,-0.050,0.325,0.200,97.000
'0:26.390',-0.005,-0.049,0.332,0.205,97.000
'0:26.400',0.035,-0.047,0.340,0.209,97.000
'0:26.410',0.055,-0.045,0.350,0.213,97.000
'0:26.420',0.120,-0.043,0.360,0.217,97.000
'0:26.430',0.150,-0.042,0.370,0.221,97.000
'0:26.440',0.110,-0.040,0.380,0.225,97.000
'0:26.450',-0.025,-0.038,0.390,0.229,97.000
'0:26.460',-0.075,-0.036,0.399,0.233,97.000
'0:26.470',-0.115,-0.034,0.409,0.236,97.000
'0:26.480',-0.115,-0.032,0.418,0.240,97.000
'0:26.490',-0.100,-0.030,0.428,0.244,97.000
'0:26.500',-0.110,-0.028,0.438,0.247,97.000
