'Elapsed time','ECG'
'hh:mm:ss.mmm','mV'
'0:00.000',-0.175
'0:00.010',-0.140
'0:00.020',-0.165
'0:00.030',-0.295
'0:00.040',-0.240
'0:00.050',-0.345
'0:00.060',-0.245
'0:00.070',-0.300
'0:00.080',-0.215
'0:00.090',-0.280
'0:00.100',-0.175
'0:00.110',-0.205
'0:00.120',-0.215
'0:00.130',-0.270
'0:00.140',-0.120
'0:00.150',-0.175
'0:00.160',-0.090
'0:00.170',-0.150
'0:00.180',-0.200
'0:00.190',-0.265
'0:00.200',-0.055
'0:00.210',-0.130
'0:00.220',-0.185
'0:00.230',-0.160
'0:00.240',0.095
'0:00.250',-0.110
'0:00.260',-0.225
'0:00.270',-0.080
'0:00.280',0.110
'0:00.290',-0.075
'0:00.300',0.055
'0:00.310',0.125
'0:00.320',0.080
'0:00.330',-0.130
'0:00.340',0.035
'0:00.350',-0.115
'0:00.360',-0.290
'0:00.370',-0.315
'0:00.380',-0.045
'0:00.390',-0.170
'0:00.400',-0.285
'0:00.410',-0.270
'0:00.420',-0.130
'0:00.430',-0.270
'0:00.440',-0.160
'0:00.450',0.790
'0:00.460',3.020
'0:00.470',2.850
'0:00.480',0.005
'0:00.490',-1.965
'0:00.500',-2.010
'0:00.510',-1.425
'0:00.520',-0.560
'0:00.530',-0.270
'0:00.540',-0.160
'0:00.550',-0.140
'0:00.560',0.055
'0:00.570',-0.090
'0:00.580',-0.050
'0:00.590',0.070
'0:00.600',0.155
'0:00.610',0.010
'0:00.620',0.030
'0:00.630',-0.005
'0:00.640',0.175
'0:00.650',0.130
'0:00.660',0.180
'0:00.670',0.215
'0:00.680',0.340
'0:00.690',0.285
'0:00.700',0.430
'0:00.710',0.400
'0:00.720',0.475
'0:00.730',0.535
'0:00.740',0.630
'0:00.750',0.560
'0:00.760',0.530
'0:00.770',0.425
'0:00.780',0.420
'0:00.790',0.245
'0:00.800',0.150
'0:00.810',0.015
'0:00.820',0.105
'0:00.830',-0.090
'0:00.840',-0.140
'0:00.850',-0.160
'0:00.860',-0.020
'0:00.870',-0.265
'0:00.880',-0.210
'0:00.890',-0.180
'0:00.900',-0.240
'0:00.910',-0.325
'0:00.920',-0.185
'0:00.930',-0.230
'0:00.940',-0.095
'0:00.950',-0.210
'0:00.960',-0.065
'0:00.970',-0.025
'0:00.980',-0.045
'0:00.990',-0.045
'0:01.000',-0.025
'0:01.010',-0.145
'0:01.020',-0.050
'0:01.030',-0.090
'0:01.040',0.095
'0:01.050',-0.055
'0:01.060',-0.040
'0:01.070',-0.030
'0:01.080',-0.115
'0:01.090',-0.185
'0:01.100',0.005
'0:01.110',-0.055
'0:01.120',0.010
'0:01.130',0.010
'0:01.140',0.110
'0:01.150',-0.035
'0:01.160',0.265
'0:01.170',0.180
'0:01.180',0.155
'0:01.190',0.050
'0:01.200',-0.075
'0:01.210',-0.120
'0:01.220',-0.035
'0:01.230',-0.175
'0:01.240',-0.145
'0:01.250',-0.150
'0:01.260',-0.160
'0:01.270',-0.225
'0:01.280',-0.030
'0:01.290',-0.075
'0:01.300',-0.165
'0:01.310',0.085
'0:01.320',1.810
'0:01.330',3.435
'0:01.340',2.020
'0:01.350',-0.880
'0:01.360',-1.970
'0:01.370',-1.835
'0:01.380',-0.985
'0:01.390',-0.430
'0:01.400',-0.065
'0:01.410',-0.135
'0:01.420',-0.060
'0:01.430',-0.080
'0:01.440',0.045
'0:01.450',0.080
'0:01.460',0.100
'0:01.470',0.035
'0:01.480',0.145
'0:01.490',0.095
'0:01.500',0.095
'0:01.510',0.185
'0:01.520',0.225
'0:01.530',0.065
'0:01.540',0.290
'0:01.550',0.375
'0:01.560',0.470
'0:01.570',0.315
'0:01.580',0.460
'0:01.590',0.560
'0:01.600',0.655
'0:01.610',0.410
'0:01.620',0.515
'0:01.630',0.470
'0:01.640',0.430
'0:01.650',0.355
'0:01.660',0.265
'0:01.670',0.070
'0:01.680',0.135
'0:01.690',0.060
'0:01.700',0.095
'0:01.710',-0.135
'0:01.720',-0.165
'0:01.730',-0.225
'0:01.740',-0.150
'0:01.750',-0.240
'0:01.760',-0.205
'0:01.770',-0.190
'0:01.780',-0.200
'0:01.790',-0.240
'0:01.800',-0.115
'0:01.810',-0.265
'0:01.820',-0.165
'0:01.830',-0.105
'0:01.840',-0.035
'0:01.850',-0.150
'0:01.860',-0.035
'0:01.870',-0.070
'0:01.880',-0.020
'0:01.890',-0.190
'0:01.900',-0.060
'0:01.910',-0.075
'0:01.920',-0.040
'0:01.930',-0.105
'0:01.940',-0.030
'0:01.950',-0.165
'0:01.960',-0.055
'0:01.970',-0.065
'0:01.980',-0.020
'0:01.990',-0.085
'0:02.000',-0.065
'0:02.010',-0.100
'0:02.020',0.015
'0:02.030',-0.020
'0:02.040',0.150
'0:02.050',0.135
'0:02.060',0.245
'0:02.070',0.055
'0:02.080',0.030
'0:02.090',0.005
'0:02.100',-0.005
'0:02.110',-0.180
'0:02.120',-0.140
'0:02.130',-0.250
'0:02.140',-0.180
'0:02.150',-0.075
'0:02.160',0.020
'0:02.170',-0.200
'0:02.180',-0.120
'0:02.190',-0.100
'0:02.200',0.560
'0:02.210',2.420
'0:02.220',3.140
'0:02.230',0.675
'0:02.240',-1.475
'0:02.250',-2.100
'0:02.260',-1.425
'0:02.270',-0.625
'0:02.280',-0.325
'0:02.290',-0.250
'0:02.300',-0.070
'0:02.310',-0.155
'0:02.320',-0.015
'0:02.330',0.020
'0:02.340',0.115
'0:02.350',-0.110
'0:02.360',0.025
'0:02.370',0.090
'0:02.380',0.045
'0:02.390',-0.035
'0:02.400',0.135
'0:02.410',0.080
'0:02.420',0.090
'0:02.430',0.135
'0:02.440',0.345
'0:02.450',0.285
'0:02.460',0.440
'0:02.470',0.560
'0:02.480',0.520
'0:02.490',0.330
'0:02.500',0.525
'0:02.510',0.405
'0:02.520',0.405
'0:02.530',0.295
'0:02.540',0.245
'0:02.550',0.065
'0:02.560',0.110
'0:02.570',-0.070
'0:02.580',-0.095
'0:02.590',-0.055
'0:02.600',-0.030
'0:02.610',-0.260
'0:02.620',-0.180
'0:02.630',-0.315
'0:02.640',-0.255
'0:02.650',-0.270
'0:02.660',-0.255
'0:02.670',-0.310
'0:02.680',-0.100
'0:02.690',-0.175
'0:02.700',-0.245
'0:02.710',-0.210
'0:02.720',-0.090
'0:02.730',-0.295
'0:02.740',-0.155
'0:02.750',-0.150
'0:02.760',-0.090
'0:02.770',-0.115
'0:02.780',-0.080
'0:02.790',-0.135
'0:02.800',-0.095
'0:02.810',-0.275
'0:02.820',-0.125
'0:02.830',-0.095
'0:02.840',-0.080
'0:02.850',-0.090
'0:02.860',-0.135
'0:02.870',-0.310
'0:02.880',-0.060
'0:02.890',-0.145
'0:02.900',-0.135
'0:02.910',-0.035
'0:02.920',0.120
'0:02.930',0.080
'0:02.940',0.095
'0:02.950',-0.025
'0:02.960',0.050
'0:02.970',-0.110
'0:02.980',-0.015
'0:02.990',-0.065
'0:03.000',-0.050
'0:03.010',-0.235
'0:03.020',-0.205
'0:03.030',-0.150
'0:03.040',-0.225
'0:03.050',-0.385
'0:03.060',-0.200
'0:03.070',-0.260
'0:03.080',-0.185
'0:03.090',0.160
'0:03.100',1.690
'0:03.110',2.915
'0:03.120',1.375
'0:03.130',-1.155
'0:03.140',-2.080
'0:03.150',-1.920
'0:03.160',-0.940
'0:03.170',-0.520
'0:03.180',-0.255
'0:03.190',-0.240
'0:03.200',-0.205
'0:03.210',-0.090
'0:03.220',0.010
'0:03.230',-0.180
'0:03.240',-0.025
'0:03.250',0.005
'0:03.260',0.030
'0:03.270',-0.105
'0:03.280',-0.060
'0:03.290',-0.055
'0:03.300',0.115
'0:03.310',0.005
'0:03.320',0.145
'0:03.330',0.200
'0:03.340',0.290
'0:03.350',0.330
'0:03.360',0.430
'0:03.370',0.285
'0:03.380',0.335
'0:03.390',0.280
'0:03.400',0.345
'0:03.410',0.225
'0:03.420',0.240
'0:03.430',0.265
'0:03.440',0.215
'0:03.450',-0.115
'0:03.460',-0.035
'0:03.470',-0.095
'0:03.480',-0.220
'0:03.490',-0.280
'0:03.500',-0.200
'0:03.510',-0.290
'0:03.520',-0.240
'0:03.530',-0.355
'0:03.540',-0.325
'0:03.550',-0.370
'0:03.560',-0.205
'0:03.570',-0.285
'0:03.580',-0.280
'0:03.590',-0.295
'0:03.600',-0.220
'0:03.610',-0.300
'0:03.620',-0.215
'0:03.630',-0.185
'0:03.640',-0.115
'0:03.650',-0.295
'0:03.660',-0.135
'0:03.670',-0.140
'0:03.680',-0.190
'0:03.690',-0.210
'0:03.700',-0.105
'0:03.710',-0.265
'0:03.720',-0.270
'0:03.730',-0.170
'0:03.740',-0.155
'0:03.750',-0.290
'0:03.760',-0.135
'0:03.770',-0.200
'0:03.780',-0.125
'0:03.790',-0.225
'0:03.800',-0.070
'0:03.810',-0.045
'0:03.820',-0.045
'0:03.830',-0.055
'0:03.840',0.095
'0:03.850',0.000
'0:03.860',-0.035
'0:03.870',-0.185
'0:03.880',-0.040
'0:03.890',-0.090
'0:03.900',-0.235
'0:03.910',-0.355
'0:03.920',-0.165
'0:03.930',-0.355
'0:03.940',-0.370
'0:03.950',-0.340
'0:03.960',-0.205
'0:03.970',-0.225
'0:03.980',-0.035
'0:03.990',0.895
'0:04.000',2.715
'0:04.010',1.925
'0:04.020',-0.645
'0:04.030',-2.050
'0:04.040',-2.005
'0:04.050',-1.345
'0:04.060',-0.665
'0:04.070',-0.400
'0:04.080',-0.140
'0:04.090',-0.205
'0:04.100',-0.130
'0:04.110',-0.190
'0:04.120',-0.010
'0:04.130',-0.065
'0:04.140',-0.080
'0:04.150',-0.015
'0:04.160',0.030
'0:04.170',-0.070
'0:04.180',-0.050
'0:04.190',-0.120
'0:04.200',0.075
'0:04.210',0.055
'0:04.220',0.250
'0:04.230',0.225
'0:04.240',0.290
'0:04.250',0.300
'0:04.260',0.430
'0:04.270',0.370
'0:04.280',0.385
'0:04.290',0.200
'0:04.300',0.275
'0:04.310',0.195
'0:04.320',0.240
'0:04.330',0.095
'0:04.340',0.005
'0:04.350',0.015
'0:04.360',0.005
'0:04.370',-0.210
'0:04.380',-0.180
'0:04.390',-0.220
'0:04.400',-0.285
'0:04.410',-0.410
'0:04.420',-0.275
'0:04.430',-0.395
'0:04.440',-0.325
'0:04.450',-0.325
'0:04.460',-0.225
'0:04.470',-0.105
'0:04.480',-0.105
'0:04.490',-0.340
'0:04.500',-0.210
'0:04.510',-0.240
'0:04.520',-0.185
'0:04.530',-0.125
'0:04.540',-0.080
'0:04.550',-0.190
'0:04.560',-0.095
'0:04.570',-0.255
'0:04.580',-0.195
'0:04.590',-0.195
'0:04.600',-0.155
'0:04.610',-0.255
'0:04.620',-0.080
'0:04.630',-0.080
'0:04.640',-0.155
'0:04.650',-0.280
'0:04.660',-0.190
'0:04.670',-0.215
'0:04.680',-0.140
'0:04.690',-0.150
'0:04.700',0.070
'0:04.710',0.085
'0:04.720',0.135
'0:04.730',0.100
'0:04.740',-0.045
'0:04.750',-0.330
'0:04.760',-0.180
'0:04.770',-0.240
'0:04.780',-0.200
'0:04.790',-0.285
'0:04.800',-0.185
'0:04.810',-0.135
'0:04.820',-0.155
'0:04.830',-0.400
'0:04.840',-0.365
'0:04.850',-0.265
'0:04.860',-0.015
'0:04.870',1.260
'0:04.880',2.925
'0:04.890',1.530
'0:04.900',-0.915
'0:04.910',-1.975
'0:04.920',-1.865
'0:04.930',-1.225
'0:04.940',-0.515
'0:04.950',-0.440
'0:04.960',-0.300
'0:04.970',-0.215
'0:04.980',-0.080
'0:04.990',-0.025
'0:05.000',-0.050
'0:05.010',-0.125
'0:05.020',0.100
'0:05.030',-0.055
'0:05.040',0.050
'0:05.050',0.015
'0:05.060',0.035
'0:05.070',0.080
'0:05.080',0.170
'0:05.090',0.095
'0:05.100',0.135
'0:05.110',0.195
'0:05.120',0.425
'0:05.130',0.295
'0:05.140',0.390
'0:05.150',0.385
'0:05.160',0.445
'0:05.170',0.420
'0:05.180',0.330
'0:05.190',0.240
'0:05.200',0.315
'0:05.210',0.130
'0:05.220',-0.035
'0:05.230',-0.105
'0:05.240',-0.055
'0:05.250',-0.250
'0:05.260',-0.195
'0:05.270',-0.240
'0:05.280',-0.285
'0:05.290',-0.345
'0:05.300',-0.180
'0:05.310',-0.315
'0:05.320',-0.290
'0:05.330',-0.290
'0:05.340',-0.140
'0:05.350',-0.215
'0:05.360',-0.260
'0:05.370',-0.315
'0:05.380',-0.095
'0:05.390',-0.115
'0:05.400',-0.100
'0:05.410',-0.090
'0:05.420',-0.130
'0:05.430',-0.335
'0:05.440',-0.195
'0:05.450',-0.145
'0:05.460',-0.045
'0:05.470',-0.040
'0:05.480',-0.080
'0:05.490',-0.275
'0:05.500',-0.125
'0:05.510',-0.115
'0:05.520',-0.050
'0:05.530',-0.055
'0:05.540',-0.045
'0:05.550',-0.080
'0:05.560',0.075
'0:05.570',0.015
'0:05.580',0.115
'0:05.590',0.010
'0:05.600',-0.095
'0:05.610',-0.175
'0:05.620',-0.120
'0:05.630',-0.145
'0:05.640',-0.185
'0:05.650',-0.350
'0:05.660',-0.240
'0:05.670',-0.310
'0:05.680',-0.200
'0:05.690',-0.175
'0:05.700',-0.005
'0:05.710',0.660
'0:05.720',2.560
'0:05.730',2.745
'0:05.740',0.180
'0:05.750',-1.805
'0:05.760',-2.130
'0:05.770',-1.590
'0:05.780',-0.650
'0:05.790',-0.415
'0:05.800',-0.145
'0:05.810',-0.170
'0:05.820',-0.060
'0:05.830',-0.080
'0:05.840',0.010
'0:05.850',-0.070
'0:05.860',-0.005
'0:05.870',0.065
'0:05.880',0.085
'0:05.890',-0.060
'0:05.900',0.095
'0:05.910',0.100
'0:05.920',0.125
'0:05.930',0.070
'0:05.940',0.155
'0:05.950',0.230
'0:05.960',0.380
'0:05.970',0.430
'0:05.980',0.665
'0:05.990',0.470
'0:06.000',0.430
'0:06.010',0.530
'0:06.020',0.400
'0:06.030',0.250
'0:06.040',0.235
'0:06.050',0.115
'0:06.060',0.195
'0:06.070',0.010
'0:06.080',-0.075
'0:06.090',-0.125
'0:06.100',-0.005
'0:06.110',-0.130
'0:06.120',-0.215
'0:06.130',-0.270
'0:06.140',-0.255
'0:06.150',-0.215
'0:06.160',-0.130
'0:06.170',-0.235
'0:06.180',-0.165
'0:06.190',-0.310
'0:06.200',-0.280
'0:06.210',-0.190
'0:06.220',-0.010
'0:06.230',-0.125
'0:06.240',-0.045
'0:06.250',-0.095
'0:06.260',-0.035
'0:06.270',-0.010
'0:06.280',-0.045
'0:06.290',0.015
'0:06.300',0.025
'0:06.310',-0.210
'0:06.320',-0.120
'0:06.330',-0.165
'0:06.340',-0.110
'0:06.350',-0.110
'0:06.360',0.030
'0:06.370',-0.035
'0:06.380',0.135
'0:06.390',0.105
'0:06.400',0.160
'0:06.410',0.170
'0:06.420',0.115
'0:06.430',0.005
'0:06.440',0.055
'0:06.450',0.055
'0:06.460',0.050
'0:06.470',-0.145
'0:06.480',-0.175
'0:06.490',-0.100
'0:06.500',-0.140
'0:06.510',-0.240
'0:06.520',-0.120
'0:06.530',-0.195
'0:06.540',-0.130
'0:06.550',0.180
'0:06.560',1.980
'0:06.570',3.225
'0:06.580',1.245
'0:06.590',-1.385
'0:06.600',-2.110
'0:06.610',-1.865
'0:06.620',-0.890
'0:06.630',-0.330
'0:06.640',0.050
'0:06.650',-0.115
'0:06.660',-0.295
'0:06.670',-0.160
'0:06.680',-0.005
'0:06.690',-0.065
'0:06.700',0.035
'0:06.710',0.040
'0:06.720',0.145
'0:06.730',0.105
'0:06.740',0.150
'0:06.750',0.265
'0:06.760',0.475
'0:06.770',0.245
'0:06.780',0.055
'0:06.790',0.090
'0:06.800',0.295
'0:06.810',0.300
'0:06.820',0.470
'0:06.830',0.550
'0:06.840',0.710
'0:06.850',0.635
'0:06.860',0.645
'0:06.870',0.570
'0:06.880',0.445
'0:06.890',0.240
'0:06.900',0.190
'0:06.910',0.105
'0:06.920',0.065
'0:06.930',0.015
'0:06.940',0.035
'0:06.950',-0.080
'0:06.960',-0.145
'0:06.970',-0.145
'0:06.980',-0.080
'0:06.990',-0.105
'0:07.000',0.280
'0:07.010',-0.080
'0:07.020',-0.470
'0:07.030',-0.305
'0:07.040',-0.130
'0:07.050',-0.185
'0:07.060',-0.115
'0:07.070',-0.110
'0:07.080',-0.025
'0:07.090',-0.050
'0:07.100',-0.005
'0:07.110',-0.005
'0:07.120',0.080
'0:07.130',-0.055
'0:07.140',0.010
'0:07.150',0.035
'0:07.160',0.035
'0:07.170',0.120
'0:07.180',0.180
'0:07.190',0.275
'0:07.200',0.170
'0:07.210',-0.210
'0:07.220',0.050
'0:07.230',0.135
'0:07.240',0.115
'0:07.250',0.075
'0:07.260',0.080
'0:07.270',-0.025
'0:07.280',-0.010
'0:07.290',-0.080
'0:07.300',-0.045
'0:07.310',-0.120
'0:07.320',-0.080
'0:07.330',-0.030
'0:07.340',-0.040
'0:07.350',-0.155
'0:07.360',-0.095
'0:07.370',0.770
'0:07.380',3.005
'0:07.390',2.970
'0:07.400',0.030
'0:07.410',-1.965
'0:07.420',-1.960
'0:07.430',-1.325
'0:07.440',-0.505
'0:07.450',-0.240
'0:07.460',-0.025
'0:07.470',0.015
'0:07.480',0.010
'0:07.490',0.060
'0:07.500',0.175
'0:07.510',0.125
'0:07.520',0.275
'0:07.530',0.220
'0:07.540',0.100
'0:07.550',0.110
'0:07.560',0.175
'0:07.570',0.215
'0:07.580',0.325
'0:07.590',0.310
'0:07.600',0.430
'0:07.610',0.465
'0:07.620',0.565
'0:07.630',0.605
'0:07.640',0.635
'0:07.650',0.815
'0:07.660',0.850
'0:07.670',0.550
'0:07.680',0.570
'0:07.690',0.545
'0:07.700',0.500
'0:07.710',0.365
'0:07.720',0.270
'0:07.730',0.130
'0:07.740',0.100
'0:07.750',0.055
'0:07.760',0.065
'0:07.770',-0.035
'0:07.780',-0.010
'0:07.790',-0.040
'0:07.800',-0.080
'0:07.810',-0.170
'0:07.820',-0.125
'0:07.830',-0.165
'0:07.840',-0.115
'0:07.850',-0.100
'0:07.860',-0.090
'0:07.870',-0.135
'0:07.880',-0.035
'0:07.890',-0.030
'0:07.900',0.005
'0:07.910',-0.075
'0:07.920',-0.065
'0:07.930',-0.105
'0:07.940',-0.030
'0:07.950',0.040
'0:07.960',0.025
'0:07.970',-0.010
'0:07.980',0.025
'0:07.990',0.080
'0:08.000',0.215
'0:08.010',0.030
'0:08.020',-0.070
'0:08.030',0.010
'0:08.040',0.150
'0:08.050',0.125
'0:08.060',0.115
'0:08.070',0.065
'0:08.080',0.055
'0:08.090',-0.055
'0:08.100',-0.105
'0:08.110',-0.130
'0:08.120',-0.100
'0:08.130',-0.130
'0:08.140',-0.080
'0:08.150',-0.170
'0:08.160',-0.150
'0:08.170',-0.145
'0:08.180',-0.030
'0:08.190',1.030
'0:08.200',3.295
'0:08.210',2.960
'0:08.220',-0.400
'0:08.230',-2.265
'0:08.240',-2.160
'0:08.250',-1.400
'0:08.260',-0.580
'0:08.270',-0.345
'0:08.280',-0.110
'0:08.290',-0.035
'0:08.300',0.050
'0:08.310',0.045
'0:08.320',0.115
'0:08.330',0.095
'0:08.340',0.180
'0:08.350',0.240
'0:08.360',0.150
'0:08.370',0.075
'0:08.380',0.170
'0:08.390',0.205
'0:08.400',0.350
'0:08.410',0.355
'0:08.420',0.355
'0:08.430',0.355
'0:08.440',0.455
'0:08.450',0.530
'0:08.460',0.590
'0:08.470',0.585
'0:08.480',0.740
'0:08.490',0.685
'0:08.500',0.570
'0:08.510',0.480
'0:08.520',0.420
'0:08.530',0.390
'0:08.540',0.285
'0:08.550',0.030
'0:08.560',-0.050
'0:08.570',-0.125
'0:08.580',-0.130
'0:08.590',-0.105
'0:08.600',-0.055
'0:08.610',-0.020
'0:08.620',0.100
'0:08.630',-0.080
'0:08.640',-0.185
'0:08.650',-0.295
'0:08.660',-0.325
'0:08.670',-0.335
'0:08.680',-0.325
'0:08.690',-0.235
'0:08.700',-0.095
'0:08.710',0.115
'0:08.720',0.245
'0:08.730',0.155
'0:08.740',0.020
'0:08.750',-0.255
'0:08.760',-0.345
'0:08.770',-0.230
'0:08.780',-0.115
'0:08.790',0.130
'0:08.800',0.355
'0:08.810',0.035
'0:08.820',-0.145
'0:08.830',-0.205
'0:08.840',-0.360
'0:08.850',-0.220
'0:08.860',0.230
'0:08.870',0.295
'0:08.880',0.060
'0:08.890',-0.010
'0:08.900',0.235
'0:08.910',-0.030
'0:08.920',-0.475
'0:08.930',-0.205
'0:08.940',-0.150
'0:08.950',-0.340
'0:08.960',-0.250
'0:08.970',-0.340
'0:08.980',-0.325
'0:08.990',-0.110
'0:09.000',-0.150
'0:09.010',-0.295
'0:09.020',1.200
'0:09.030',3.435
'0:09.040',2.375
'0:09.050',-0.830
'0:09.060',-2.145
'0:09.070',-2.095
'0:09.080',-1.230
'0:09.090',-0.645
'0:09.100',-0.515
'0:09.110',-0.260
'0:09.120',-0.295
'0:09.130',-0.185
'0:09.140',-0.105
'0:09.150',-0.190
'0:09.160',0.190
'0:09.170',-0.120
'0:09.180',-0.355
'0:09.190',-0.195
'0:09.200',-0.285
'0:09.210',-0.145
'0:09.220',0.055
'0:09.230',0.125
'0:09.240',0.040
'0:09.250',0.260
'0:09.260',0.445
'0:09.270',0.170
'0:09.280',0.190
'0:09.290',0.365
'0:09.300',0.265
'0:09.310',0.240
'0:09.320',0.400
'0:09.330',0.400
'0:09.340',0.300
'0:09.350',0.195
'0:09.360',0.165
'0:09.370',-0.005
'0:09.380',-0.065
'0:09.390',-0.110
'0:09.400',-0.210
'0:09.410',-0.115
'0:09.420',0.130
'0:09.430',-0.180
'0:09.440',-0.580
'0:09.450',-0.615
'0:09.460',-0.530
'0:09.470',-0.355
'0:09.480',-0.240
'0:09.490',-0.080
'0:09.500',-0.355
'0:09.510',-0.515
'0:09.520',-0.275
'0:09.530',-0.100
'0:09.540',0.345
'0:09.550',0.170
'0:09.560',-0.685
'0:09.570',-0.875
'0:09.580',-0.475
'0:09.590',-0.230
'0:09.600',-0.375
'0:09.610',-0.125
'0:09.620',-0.055
'0:09.630',-0.440
'0:09.640',-0.355
'0:09.650',-0.190
'0:09.660',-0.145
'0:09.670',-0.130
'0:09.680',-0.080
'0:09.690',-0.045
'0:09.700',-0.020
'0:09.710',-0.005
'0:09.720',-0.050
'0:09.730',-0.100
'0:09.740',-0.120
'0:09.750',-0.090
'0:09.760',0.225
'0:09.770',0.135
'0:09.780',-0.595
'0:09.790',-0.710
'0:09.800',-0.445
'0:09.810',-0.335
'0:09.820',-0.195
'0:09.830',-0.205
'0:09.840',-0.220
'0:09.850',0.590
'0:09.860',3.110
'0:09.870',3.385
'0:09.880',-0.005
'0:09.890',-2.220
'0:09.900',-2.475
'0:09.910',-1.750
'0:09.920',-0.760
'0:09.930',-0.465
'0:09.940',-0.285
'0:09.950',-0.120
'0:09.960',-0.005
'0:09.970',-0.085
'0:09.980',-0.095
'0:09.990',-0.145
'0:10.000',-0.245
'0:10.010',-0.115
'0:10.020',-0.080
'0:10.030',-0.010
'0:10.040',0.030
'0:10.050',0.040
'0:10.060',0.120
'0:10.070',0.265
'0:10.080',0.200
'0:10.090',0.200
'0:10.100',0.315
'0:10.110',0.275
'0:10.120',0.390
'0:10.130',0.530
'0:10.140',0.575
'0:10.150',0.490
'0:10.160',0.465
'0:10.170',0.565
'0:10.180',0.470
'0:10.190',0.165
'0:10.200',0.015
'0:10.210',-0.040
'0:10.220',-0.145
'0:10.230',-0.120
'0:10.240',-0.145
'0:10.250',-0.055
'0:10.260',-0.015
'0:10.270',-0.270
'0:10.280',-0.420
'0:10.290',-0.330
'0:10.300',-0.250
'0:10.310',-0.230
'0:10.320',-0.310
'0:10.330',-0.350
'0:10.340',-0.325
'0:10.350',-0.335
'0:10.360',-0.330
'0:10.370',0.190
'0:10.380',0.110
'0:10.390',-0.545
'0:10.400',-0.500
'0:10.410',-0.315
'0:10.420',-0.290
'0:10.430',-0.225
'0:10.440',-0.150
'0:10.450',-0.170
'0:10.460',-0.165
'0:10.470',-0.050
'0:10.480',0.270
'0:10.490',0.150
'0:10.500',-0.410
'0:10.510',-0.540
'0:10.520',-0.290
'0:10.530',-0.115
'0:10.540',-0.075
'0:10.550',-0.005
'0:10.560',0.105
'0:10.570',0.140
'0:10.580',-0.080
'0:10.590',-0.120
'0:10.600',-0.220
'0:10.610',-0.185
'0:10.620',0.200
'0:10.630',-0.170
'0:10.640',-0.600
'0:10.650',-0.305
'0:10.660',-0.345
'0:10.670',-0.535
'0:10.680',-0.315
'0:10.690',-0.245
'0:10.700',0.595
'0:10.710',2.835
'0:10.720',2.895
'0:10.730',-0.050
'0:10.740',-2.135
'0:10.750',-2.375
'0:10.760',-1.665
'0:10.770',-0.755
'0:10.780',-0.400
'0:10.790',-0.245
'0:10.800',-0.210
'0:10.810',-0.015
'0:10.820',0.005
'0:10.830',-0.145
'0:10.840',-0.115
'0:10.850',0.050
'0:10.860',0.060
'0:10.870',0.035
'0:10.880',0.315
'0:10.890',0.220
'0:10.900',-0.200
'0:10.910',-0.070
'0:10.920',0.080
'0:10.930',0.175
'0:10.940',0.305
'0:10.950',0.380
'0:10.960',0.375
'0:10.970',0.560
'0:10.980',0.550
'0:10.990',0.485
'0:11.000',0.465
'0:11.010',0.440
'0:11.020',0.415
'0:11.030',0.275
'0:11.040',0.155
'0:11.050',0.110
'0:11.060',0.005
'0:11.070',-0.030
'0:11.080',-0.125
'0:11.090',-0.155
'0:11.100',-0.185
'0:11.110',-0.210
'0:11.120',-0.265
'0:11.130',-0.230
'0:11.140',-0.240
'0:11.150',-0.305
'0:11.160',-0.315
'0:11.170',-0.220
'0:11.180',-0.200
'0:11.190',-0.175
'0:11.200',-0.270
'0:11.210',-0.240
'0:11.220',-0.175
'0:11.230',-0.175
'0:11.240',-0.170
'0:11.250',-0.160
'0:11.260',-0.140
'0:11.270',-0.130
'0:11.280',-0.115
'0:11.290',-0.065
'0:11.300',-0.135
'0:11.310',-0.100
'0:11.320',-0.115
'0:11.330',-0.095
'0:11.340',-0.050
'0:11.350',-0.070
'0:11.360',-0.060
'0:11.370',0.015
'0:11.380',-0.055
'0:11.390',-0.025
'0:11.400',0.105
'0:11.410',0.370
'0:11.420',0.405
'0:11.430',0.235
'0:11.440',-0.090
'0:11.450',-0.390
'0:11.460',-0.370
'0:11.470',-0.250
'0:11.480',-0.220
'0:11.490',-0.190
'0:11.500',-0.115
'0:11.510',0.095
'0:11.520',0.020
'0:11.530',-0.280
'0:11.540',-0.215
'0:11.550',0.080
'0:11.560',1.905
'0:11.570',3.865
'0:11.580',1.675
'0:11.590',-1.400
'0:11.600',-2.475
'0:11.610',-2.180
'0:11.620',-1.135
'0:11.630',-0.530
'0:11.640',-0.335
'0:11.650',-0.145
'0:11.660',-0.210
'0:11.670',-0.150
'0:11.680',-0.065
'0:11.690',-0.025
'0:11.700',-0.055
'0:11.710',-0.010
'0:11.720',0.010
'0:11.730',0.020
'0:11.740',0.020
'0:11.750',0.120
'0:11.760',0.155
'0:11.770',0.350
'0:11.780',0.430
'0:11.790',0.460
'0:11.800',0.175
'0:11.810',0.040
'0:11.820',0.235
'0:11.830',0.360
'0:11.840',0.440
'0:11.850',0.500
'0:11.860',0.495
'0:11.870',0.570
'0:11.880',0.465
'0:11.890',0.385
'0:11.900',0.300
'0:11.910',0.240
'0:11.920',0.215
'0:11.930',0.075
'0:11.940',-0.255
'0:11.950',-0.195
'0:11.960',-0.235
'0:11.970',-0.305
'0:11.980',-0.260
'0:11.990',-0.240
'0:12.000',-0.270
'0:12.010',-0.265
'0:12.020',-0.270
'0:12.030',-0.220
'0:12.040',-0.245
'0:12.050',-0.160
'0:12.060',-0.070
'0:12.070',-0.135
'0:12.080',-0.300
'0:12.090',-0.235
'0:12.100',-0.230
'0:12.110',-0.240
'0:12.120',-0.205
'0:12.130',-0.125
'0:12.140',-0.195
'0:12.150',-0.195
'0:12.160',-0.120
'0:12.170',-0.050
'0:12.180',-0.140
'0:12.190',-0.120
'0:12.200',-0.135
'0:12.210',-0.145
'0:12.220',-0.115
'0:12.230',-0.030
'0:12.240',-0.070
'0:12.250',0.030
'0:12.260',0.080
'0:12.270',0.080
'0:12.280',0.105
'0:12.290',0.160
'0:12.300',0.080
'0:12.310',0.015
'0:12.320',-0.060
'0:12.330',-0.065
'0:12.340',-0.115
'0:12.350',-0.085
'0:12.360',-0.145
'0:12.370',-0.135
'0:12.380',-0.150
'0:12.390',-0.105
'0:12.400',-0.140
'0:12.410',-0.065
'0:12.420',0.080
'0:12.430',1.235
'0:12.440',3.020
'0:12.450',2.225
'0:12.460',-0.700
'0:12.470',-2.195
'0:12.480',-2.160
'0:12.490',-1.200
'0:12.500',-0.525
'0:12.510',-0.275
'0:12.520',-0.045
'0:12.530',0.105
'0:12.540',0.030
'0:12.550',-0.040
'0:12.560',-0.055
'0:12.570',-0.005
'0:12.580',0.000
'0:12.590',0.045
'0:12.600',0.040
'0:12.610',0.095
'0:12.620',0.070
'0:12.630',0.115
'0:12.640',0.155
'0:12.650',0.245
'0:12.660',0.245
'0:12.670',0.340
'0:12.680',0.355
'0:12.690',0.485
'0:12.700',0.505
'0:12.710',0.545
'0:12.720',0.515
'0:12.730',0.530
'0:12.740',0.475
'0:12.750',0.460
'0:12.760',0.365
'0:12.770',0.275
'0:12.780',0.130
'0:12.790',0.085
'0:12.800',-0.030
'0:12.810',-0.050
'0:12.820',-0.105
'0:12.830',-0.095
'0:12.840',-0.145
'0:12.850',-0.175
'0:12.860',-0.205
'0:12.870',-0.175
'0:12.880',-0.230
'0:12.890',-0.230
'0:12.900',-0.255
'0:12.910',-0.205
'0:12.920',-0.230
'0:12.930',-0.190
'0:12.940',-0.190
'0:12.950',-0.155
'0:12.960',-0.195
'0:12.970',-0.170
'0:12.980',-0.170
'0:12.990',-0.130
'0:13.000',-0.150
'0:13.010',-0.130
'0:13.020',-0.145
'0:13.030',-0.110
'0:13.040',-0.175
'0:13.050',-0.125
'0:13.060',-0.140
'0:13.070',-0.105
'0:13.080',-0.145
'0:13.090',-0.140
'0:13.100',-0.160
'0:13.110',-0.050
'0:13.120',-0.050
'0:13.130',-0.005
'0:13.140',0.010
'0:13.150',0.085
'0:13.160',0.090
'0:13.170',0.080
'0:13.180',0.000
'0:13.190',-0.015
'0:13.200',-0.110
'0:13.210',-0.110
'0:13.220',-0.160
'0:13.230',-0.175
'0:13.240',-0.230
'0:13.250',-0.180
'0:13.260',-0.205
'0:13.270',-0.210
'0:13.280',-0.235
'0:13.290',-0.155
'0:13.300',0.150
'0:13.310',1.695
'0:13.320',3.015
'0:13.330',1.195
'0:13.340',-1.520
'0:13.350',-2.345
'0:13.360',-2.080
'0:13.370',-1.085
'0:13.380',-0.510
'0:13.390',-0.285
'0:13.400',-0.185
'0:13.410',-0.095
'0:13.420',-0.090
'0:13.430',-0.015
'0:13.440',-0.010
'0:13.450',0.020
'0:13.460',-0.015
'0:13.470',0.015
'0:13.480',0.025
'0:13.490',0.070
'0:13.500',0.045
'0:13.510',0.115
'0:13.520',0.125
'0:13.530',0.225
'0:13.540',0.240
'0:13.550',0.315
'0:13.560',0.335
'0:13.570',0.435
'0:13.580',0.475
'0:13.590',0.520
'0:13.600',0.470
'0:13.610',0.495
'0:13.620',0.425
'0:13.630',0.390
'0:13.640',0.255
'0:13.650',0.180
'0:13.660',0.025
'0:13.670',-0.040
'0:13.680',-0.115
'0:13.690',-0.125
'0:13.700',-0.210
'0:13.710',-0.225
'0:13.720',-0.275
'0:13.730',-0.270
'0:13.740',-0.295
'0:13.750',-0.260
'0:13.760',-0.300
'0:13.770',-0.290
'0:13.780',-0.325
'0:13.790',-0.255
'0:13.800',-0.275
'0:13.810',-0.255
'0:13.820',-0.260
'0:13.830',-0.165
'0:13.840',-0.185
'0:13.850',-0.160
'0:13.860',-0.185
'0:13.870',-0.165
'0:13.880',-0.175
'0:13.890',-0.145
'0:13.900',-0.225
'0:13.910',-0.155
'0:13.920',-0.195
'0:13.930',-0.165
'0:13.940',-0.200
'0:13.950',-0.205
'0:13.960',-0.190
'0:13.970',-0.100
'0:13.980',-0.105
'0:13.990',-0.065
'0:14.000',-0.065
'0:14.010',0.010
'0:14.020',0.020
'0:14.030',0.055
'0:14.040',-0.045
'0:14.050',-0.065
'0:14.060',-0.125
'0:14.070',-0.145
'0:14.080',-0.235
'0:14.090',-0.270
'0:14.100',-0.300
'0:14.110',-0.205
'0:14.120',-0.265
'0:14.130',-0.255
'0:14.140',-0.255
'0:14.150',-0.225
'0:14.160',-0.120
'0:14.170',1.205
'0:14.180',3.215
'0:14.190',2.290
'0:14.200',-0.880
'0:14.210',-2.280
'0:14.220',-2.205
'0:14.230',-1.345
'0:14.240',-0.650
'0:14.250',-0.360
'0:14.260',-0.230
'0:14.270',-0.135
'0:14.280',-0.120
'0:14.290',-0.045
'0:14.300',-0.065
'0:14.310',-0.025
'0:14.320',-0.035
'0:14.330',0.030
'0:14.340',0.000
'0:14.350',0.025
'0:14.360',0.015
'0:14.370',0.115
'0:14.380',0.210
'0:14.390',0.300
'0:14.400',0.255
'0:14.410',0.320
'0:14.420',0.315
'0:14.430',0.420
'0:14.440',0.460
'0:14.450',0.515
'0:14.460',0.460
'0:14.470',0.465
'0:14.480',0.415
'0:14.490',0.405
'0:14.500',0.245
'0:14.510',0.145
'0:14.520',0.015
'0:14.530',-0.010
'0:14.540',-0.100
'0:14.550',-0.130
'0:14.560',-0.210
'0:14.570',-0.225
'0:14.580',-0.270
'0:14.590',-0.240
'0:14.600',-0.315
'0:14.610',-0.325
'0:14.620',-0.345
'0:14.630',-0.310
'0:14.640',-0.320
'0:14.650',-0.290
'0:14.660',-0.280
'0:14.670',-0.210
'0:14.680',-0.235
'0:14.690',-0.195
'0:14.700',-0.180
'0:14.710',-0.140
'0:14.720',-0.160
'0:14.730',-0.120
'0:14.740',-0.155
'0:14.750',-0.120
'0:14.760',-0.175
'0:14.770',-0.140
'0:14.780',-0.170
'0:14.790',-0.170
'0:14.800',-0.210
'0:14.810',-0.175
'0:14.820',-0.190
'0:14.830',-0.110
'0:14.840',-0.100
'0:14.850',-0.010
'0:14.860',0.025
'0:14.870',0.060
'0:14.880',-0.030
'0:14.890',0.015
'0:14.900',-0.055
'0:14.910',-0.090
'0:14.920',-0.130
'0:14.930',-0.040
'0:14.940',-0.030
'0:14.950',-0.090
'0:14.960',-0.210
'0:14.970',-0.215
'0:14.980',-0.310
'0:14.990',-0.305
'0:15.000',-0.335
'0:15.010',-0.275
'0:15.020',-0.295
'0:15.030',-0.075
'0:15.040',1.375
'0:15.050',3.470
'0:15.060',2.135
'0:15.070',-1.040
'0:15.080',-2.445
'0:15.090',-2.180
'0:15.100',-1.295
'0:15.110',-0.620
'0:15.120',-0.430
'0:15.130',-0.250
'0:15.140',-0.255
'0:15.150',-0.175
'0:15.160',-0.215
'0:15.170',-0.185
'0:15.180',-0.150
'0:15.190',-0.080
'0:15.200',-0.120
'0:15.210',-0.075
'0:15.220',-0.055
'0:15.230',0.015
'0:15.240',0.065
'0:15.250',0.130
'0:15.260',0.120
'0:15.270',0.215
'0:15.280',0.385
'0:15.290',0.535
'0:15.300',0.365
'0:15.310',0.375
'0:15.320',0.375
'0:15.330',0.390
'0:15.340',0.540
'0:15.350',0.595
'0:15.360',0.435
'0:15.370',0.260
'0:15.380',-0.030
'0:15.390',-0.305
'0:15.400',-0.585
'0:15.410',-0.605
'0:15.420',-0.440
'0:15.430',-0.285
'0:15.440',-0.280
'0:15.450',-0.235
'0:15.460',-0.325
'0:15.470',-0.325
'0:15.480',-0.360
'0:15.490',-0.305
'0:15.500',-0.345
'0:15.510',-0.295
'0:15.520',-0.330
'0:15.530',-0.300
'0:15.540',-0.240
'0:15.550',-0.220
'0:15.560',-0.255
'0:15.570',-0.185
'0:15.580',-0.185
'0:15.590',-0.195
'0:15.600',-0.265
'0:15.610',-0.205
'0:15.620',-0.160
'0:15.630',-0.105
'0:15.640',-0.100
'0:15.650',-0.080
'0:15.660',-0.140
'0:15.670',-0.080
'0:15.680',-0.130
'0:15.690',-0.110
'0:15.700',-0.110
'0:15.710',0.030
'0:15.720',0.210
'0:15.730',0.400
'0:15.740',0.440
'0:15.750',0.435
'0:15.760',0.345
'0:15.770',0.255
'0:15.780',0.075
'0:15.790',0.010
'0:15.800',-0.030
'0:15.810',-0.075
'0:15.820',-0.185
'0:15.830',-0.165
'0:15.840',-0.240
'0:15.850',-0.245
'0:15.860',-0.315
'0:15.870',-0.305
'0:15.880',-0.390
'0:15.890',-0.385
'0:15.900',-0.360
'0:15.910',0.315
'0:15.920',2.140
'0:15.930',2.775
'0:15.940',0.395
'0:15.950',-1.625
'0:15.960',-2.140
'0:15.970',-1.705
'0:15.980',-0.880
'0:15.990',-0.470
'0:16.000',-0.325
'0:16.010',-0.200
'0:16.020',-0.220
'0:16.030',-0.205
'0:16.040',-0.205
'0:16.050',-0.140
'0:16.060',-0.185
'0:16.070',-0.080
'0:16.080',-0.045
'0:16.090',0.000
'0:16.100',-0.060
'0:16.110',0.020
'0:16.120',0.025
'0:16.130',0.105
'0:16.140',0.115
'0:16.150',0.185
'0:16.160',0.205
'0:16.170',0.310
'0:16.180',0.320
'0:16.190',0.400
'0:16.200',0.385
'0:16.210',0.455
'0:16.220',0.410
'0:16.230',0.380
'0:16.240',0.275
'0:16.250',0.240
'0:16.260',0.040
'0:16.270',-0.095
'0:16.280',-0.290
'0:16.290',-0.325
'0:16.300',-0.455
'0:16.310',-0.405
'0:16.320',-0.395
'0:16.330',-0.440
'0:16.340',-0.590
'0:16.350',-0.705
'0:16.360',-0.950
'0:16.370',-0.915
'0:16.380',-0.650
'0:16.390',-0.500
'0:16.400',-0.505
'0:16.410',-0.325
'0:16.420',-0.325
'0:16.430',-0.255
'0:16.440',-0.295
'0:16.450',-0.250
'0:16.460',-0.230
'0:16.470',-0.185
'0:16.480',-0.240
'0:16.490',-0.200
'0:16.500',-0.195
'0:16.510',-0.175
'0:16.520',-0.210
'0:16.530',-0.205
'0:16.540',-0.260
'0:16.550',-0.195
'0:16.560',-0.250
'0:16.570',-0.195
'0:16.580',-0.170
'0:16.590',-0.095
'0:16.600',-0.095
'0:16.610',-0.030
'0:16.620',-0.045
'0:16.630',0.015
'0:16.640',-0.065
'0:16.650',-0.115
'0:16.660',-0.185
'0:16.670',-0.165
'0:16.680',-0.260
'0:16.690',-0.265
'0:16.700',-0.315
'0:16.710',-0.280
'0:16.720',-0.325
'0:16.730',-0.275
'0:16.740',-0.290
'0:16.750',-0.280
'0:16.760',-0.210
'0:16.770',0.640
'0:16.780',2.595
'0:16.790',2.940
'0:16.800',0.495
'0:16.810',-1.375
'0:16.820',-1.885
'0:16.830',-1.410
'0:16.840',-0.735
'0:16.850',-0.460
'0:16.860',-0.335
'0:16.870',-0.215
'0:16.880',-0.130
'0:16.890',-0.015
'0:16.900',-0.050
'0:16.910',0.085
'0:16.920',0.235
'0:16.930',0.345
'0:16.940',0.315
'0:16.950',0.285
'0:16.960',0.190
'0:16.970',0.160
'0:16.980',0.095
'0:16.990',0.095
'0:17.000',0.030
'0:17.010',0.045
'0:17.020',0.015
'0:17.030',0.115
'0:17.040',0.170
'0:17.050',0.315
'0:17.060',0.395
'0:17.070',0.565
'0:17.080',0.615
'0:17.090',0.640
'0:17.100',0.495
'0:17.110',0.395
'0:17.120',0.185
'0:17.130',0.080
'0:17.140',-0.075
'0:17.150',-0.155
'0:17.160',-0.290
'0:17.170',-0.275
'0:17.180',-0.305
'0:17.190',-0.315
'0:17.200',-0.380
'0:17.210',-0.330
'0:17.220',-0.375
'0:17.230',-0.315
'0:17.240',-0.325
'0:17.250',-0.260
'0:17.260',-0.270
'0:17.270',-0.205
'0:17.280',-0.215
'0:17.290',-0.175
'0:17.300',-0.220
'0:17.310',-0.185
'0:17.320',-0.250
'0:17.330',-0.210
'0:17.340',-0.240
'0:17.350',-0.200
'0:17.360',-0.235
'0:17.370',-0.180
'0:17.380',-0.205
'0:17.390',-0.170
'0:17.400',-0.205
'0:17.410',-0.125
'0:17.420',-0.125
'0:17.430',-0.130
'0:17.440',-0.185
'0:17.450',-0.085
'0:17.460',-0.085
'0:17.470',-0.010
'0:17.480',-0.080
'0:17.490',-0.030
'0:17.500',-0.050
'0:17.510',0.005
'0:17.520',-0.060
'0:17.530',-0.065
'0:17.540',-0.145
'0:17.550',-0.150
'0:17.560',-0.200
'0:17.570',-0.165
'0:17.580',-0.230
'0:17.590',-0.175
'0:17.600',-0.235
'0:17.610',-0.185
'0:17.620',-0.235
'0:17.630',-0.185
'0:17.640',0.025
'0:17.650',1.360
'0:17.660',2.990
'0:17.670',1.895
'0:17.680',-0.930
'0:17.690',-2.215
'0:17.700',-2.135
'0:17.710',-1.180
'0:17.720',-0.600
'0:17.730',-0.325
'0:17.740',-0.230
'0:17.750',-0.105
'0:17.760',-0.135
'0:17.770',-0.060
'0:17.780',-0.080
'0:17.790',-0.025
'0:17.800',-0.060
'0:17.810',-0.035
'0:17.820',-0.050
'0:17.830',0.035
'0:17.840',0.005
'0:17.850',0.105
'0:17.860',0.090
'0:17.870',0.165
'0:17.880',0.165
'0:17.890',0.275
'0:17.900',0.275
'0:17.910',0.405
'0:17.920',0.415
'0:17.930',0.530
'0:17.940',0.505
'0:17.950',0.525
'0:17.960',0.465
'0:17.970',0.465
'0:17.980',0.295
'0:17.990',0.240
'0:18.000',0.080
'0:18.010',0.020
'0:18.020',-0.110
'0:18.030',-0.100
'0:18.040',-0.185
'0:18.050',-0.140
'0:18.060',-0.220
'0:18.070',-0.205
'0:18.080',-0.270
'0:18.090',-0.225
'0:18.100',-0.285
'0:18.110',-0.260
'0:18.120',-0.305
'0:18.130',-0.265
'0:18.140',-0.340
'0:18.150',-0.275
'0:18.160',-0.300
'0:18.170',-0.240
'0:18.180',-0.290
'0:18.190',-0.235
'0:18.200',-0.255
'0:18.210',-0.195
'0:18.220',-0.240
'0:18.230',-0.195
'0:18.240',-0.230
'0:18.250',-0.185
'0:18.260',-0.260
'0:18.270',-0.175
'0:18.280',-0.205
'0:18.290',-0.185
'0:18.300',-0.215
'0:18.310',-0.130
'0:18.320',-0.195
'0:18.330',-0.100
'0:18.340',-0.060
'0:18.350',0.005
'0:18.360',-0.075
'0:18.370',0.005
'0:18.380',-0.025
'0:18.390',-0.045
'0:18.400',-0.140
'0:18.410',-0.145
'0:18.420',-0.240
'0:18.430',-0.205
'0:18.440',-0.315
'0:18.450',-0.295
'0:18.460',-0.345
'0:18.470',-0.280
'0:18.480',-0.335
'0:18.490',-0.265
'0:18.500',-0.305
'0:18.510',-0.040
'0:18.520',1.180
'0:18.530',2.975
'0:18.540',1.840
'0:18.550',-0.925
'0:18.560',-2.335
'0:18.570',-2.250
'0:18.580',-1.395
'0:18.590',-0.625
'0:18.600',-0.440
'0:18.610',-0.255
'0:18.620',-0.270
'0:18.630',-0.145
'0:18.640',-0.145
'0:18.650',-0.070
'0:18.660',-0.120
'0:18.670',-0.060
'0:18.680',-0.110
'0:18.690',-0.035
'0:18.700',-0.070
'0:18.710',0.000
'0:18.720',-0.025
'0:18.730',0.100
'0:18.740',0.080
'0:18.750',0.180
'0:18.760',0.195
'0:18.770',0.310
'0:18.780',0.325
'0:18.790',0.310
'0:18.800',0.295
'0:18.810',0.450
'0:18.820',0.435
'0:18.830',0.450
'0:18.840',0.330
'0:18.850',0.280
'0:18.860',0.110
'0:18.870',0.085
'0:18.880',-0.050
'0:18.890',-0.065
'0:18.900',-0.170
'0:18.910',-0.135
'0:18.920',-0.235
'0:18.930',-0.185
'0:18.940',-0.250
'0:18.950',-0.190
'0:18.960',-0.300
'0:18.970',-0.265
'0:18.980',-0.330
'0:18.990',-0.310
'0:19.000',-0.370
'0:19.010',-0.295
'0:19.020',-0.330
'0:19.030',-0.250
'0:19.040',-0.315
'0:19.050',-0.225
'0:19.060',-0.250
'0:19.070',-0.180
'0:19.080',-0.235
'0:19.090',-0.165
'0:19.100',-0.225
'0:19.110',-0.165
'0:19.120',-0.215
'0:19.130',-0.155
'0:19.140',-0.230
'0:19.150',-0.170
'0:19.160',-0.215
'0:19.170',-0.150
'0:19.180',-0.220
'0:19.190',-0.170
'0:19.200',-0.185
'0:19.210',-0.080
'0:19.220',-0.100
'0:19.230',0.045
'0:19.240',0.005
'0:19.250',0.090
'0:19.260',0.015
'0:19.270',0.045
'0:19.280',-0.065
'0:19.290',-0.055
'0:19.300',-0.155
'0:19.310',-0.150
'0:19.320',-0.245
'0:19.330',-0.195
'0:19.340',-0.255
'0:19.350',-0.205
'0:19.360',-0.265
'0:19.370',-0.205
'0:19.380',-0.235
'0:19.390',-0.090
'0:19.400',0.415
'0:19.410',2.380
'0:19.420',2.890
'0:19.430',0.530
'0:19.440',-1.785
'0:19.450',-2.310
'0:19.460',-1.820
'0:19.470',-0.770
'0:19.480',-0.445
'0:19.490',-0.215
'0:19.500',-0.170
'0:19.510',-0.075
'0:19.520',-0.110
'0:19.530',0.005
'0:19.540',-0.070
'0:19.550',0.005
'0:19.560',-0.020
'0:19.570',0.025
'0:19.580',-0.015
'0:19.590',0.115
'0:19.600',0.025
'0:19.610',0.140
'0:19.620',0.135
'0:19.630',0.195
'0:19.640',0.155
'0:19.650',0.295
'0:19.660',0.300
'0:19.670',0.465
'0:19.680',0.505
'0:19.690',0.570
'0:19.700',0.460
'0:19.710',0.500
'0:19.720',0.345
'0:19.730',0.325
'0:19.740',0.185
'0:19.750',0.185
'0:19.760',0.025
'0:19.770',0.025
'0:19.780',-0.125
'0:19.790',-0.105
'0:19.800',-0.145
'0:19.810',-0.070
'0:19.820',-0.230
'0:19.830',-0.240
'0:19.840',-0.300
'0:19.850',-0.220
'0:19.860',-0.250
'0:19.870',-0.235
'0:19.880',-0.345
'0:19.890',-0.185
'0:19.900',-0.200
'0:19.910',-0.095
'0:19.920',-0.130
'0:19.930',-0.150
'0:19.940',-0.255
'0:19.950',-0.210
'0:19.960',-0.275
'0:19.970',0.065
'0:19.980',0.115
'0:19.990',-0.065
'0:20.000',-0.305
'0:20.010',-0.205
'0:20.020',-0.230
'0:20.030',-0.200
'0:20.040',-0.255
'0:20.050',-0.145
'0:20.060',-0.200
'0:20.070',-0.190
'0:20.080',-0.385
'0:20.090',-0.230
'0:20.100',-0.110
'0:20.110',-0.175
'0:20.120',-0.340
'0:20.130',-0.235
'0:20.140',-0.240
'0:20.150',-0.005
'0:20.160',0.015
'0:20.170',-0.055
'0:20.180',-0.285
'0:20.190',-0.260
'0:20.200',-0.400
'0:20.210',-0.310
'0:20.220',-0.310
'0:20.230',-0.265
'0:20.240',-0.280
'0:20.250',-0.400
'0:20.260',-0.630
'0:20.270',-0.305
'0:20.280',-0.400
'0:20.290',-0.100
'0:20.300',1.525
'0:20.310',2.995
'0:20.320',1.070
'0:20.330',-1.485
'0:20.340',-2.680
'0:20.350',-2.410
'0:20.360',-1.360
'0:20.370',-0.675
'0:20.380',-0.435
'0:20.390',0.040
'0:20.400',0.010
'0:20.410',0.070
'0:20.420',-0.255
'0:20.430',-0.430
'0:20.440',-0.310
'0:20.450',-0.010
'0:20.460',-0.195
'0:20.470',-0.335
'0:20.480',-0.075
'0:20.490',0.175
'0:20.500',-0.150
'0:20.510',-0.095
'0:20.520',-0.005
'0:20.530',0.265
'0:20.540',0.230
'0:20.550',0.430
'0:20.560',0.580
'0:20.570',0.595
'0:20.580',0.530
'0:20.590',0.820
'0:20.600',0.650
'0:20.610',0.250
'0:20.620',0.065
'0:20.630',0.275
'0:20.640',-0.010
'0:20.650',0.025
'0:20.660',-0.025
'0:20.670',0.090
'0:20.680',-0.135
'0:20.690',-0.155
'0:20.700',0.115
'0:20.710',0.255
'0:20.720',0.170
'0:20.730',0.515
'0:20.740',0.255
'0:20.750',0.005
'0:20.760',-0.135
'0:20.770',-0.135
'0:20.780',0.085
'0:20.790',0.385
'0:20.800',0.295
'0:20.810',0.235
'0:20.820',0.020
'0:20.830',-0.035
'0:20.840',-0.105
'0:20.850',-0.090
'0:20.860',-0.135
'0:20.870',-0.170
'0:20.880',-0.255
'0:20.890',-0.330
'0:20.900',-0.355
'0:20.910',-0.315
'0:20.920',-0.335
'0:20.930',-0.130
'0:20.940',0.055
'0:20.950',0.150
'0:20.960',-0.315
'0:20.970',-0.675
'0:20.980',-0.645
'0:20.990',-0.495
'0:21.000',-0.395
'0:21.010',-0.190
'0:21.020',-0.220
'0:21.030',-0.325
'0:21.040',-0.650
'0:21.050',-1.170
'0:21.060',-1.750
'0:21.070',-1.260
'0:21.080',-0.975
'0:21.090',-1.140
'0:21.100',-0.910
'0:21.110',-0.785
'0:21.120',-1.255
'0:21.130',-1.190
'0:21.140',-1.200
'0:21.150',-0.850
'0:21.160',-0.665
'0:21.170',1.175
'0:21.180',3.335
'0:21.190',2.480
'0:21.200',-0.970
'0:21.210',-2.295
'0:21.220',-2.160
'0:21.230',-1.100
'0:21.240',-0.510
'0:21.250',-0.150
'0:21.260',-0.120
'0:21.270',0.845
'0:21.280',0.745
'0:21.290',-0.145
'0:21.300',-0.315
'0:21.310',0.515
'0:21.320',0.240
'0:21.330',0.195
'0:21.340',0.250
'0:21.350',0.510
'0:21.360',0.235
'0:21.370',0.225
'0:21.380',0.080
'0:21.390',0.270
'0:21.400',0.335
'0:21.410',0.845
'0:21.420',0.645
'0:21.430',0.165
'0:21.440',-0.180
'0:21.450',0.425
'0:21.460',0.610
'0:21.470',0.845
'0:21.480',0.550
'0:21.490',0.885
'0:21.500',0.680
'0:21.510',0.275
'0:21.520',-0.055
'0:21.530',0.275
'0:21.540',0.165
'0:21.550',0.390
'0:21.560',-0.050
'0:21.570',0.055
'0:21.580',-0.105
'0:21.590',0.045
'0:21.600',0.790
'0:21.610',2.325
'0:21.620',2.240
'0:21.630',2.205
'0:21.640',3.925
'0:21.650',3.655
'0:21.660',1.455
'0:21.670',0.815
'0:21.680',-0.160
'0:21.690',0.015
'0:21.700',-0.290
'0:21.710',0.070
'0:21.720',0.475
'0:21.730',0.060
'0:21.740',-0.325
'0:21.750',0.490
'0:21.760',0.445
'0:21.770',0.635
'0:21.780',0.635
'0:21.790',1.040
'0:21.800',1.160
'0:21.810',1.380
'0:21.820',1.320
'0:21.830',2.210
'0:21.840',2.580
'0:21.850',1.990
'0:21.860',0.990
'0:21.870',0.685
'0:21.880',0.045
'0:21.890',0.275
'0:21.900',0.275
'0:21.910',0.570
'0:21.920',0.385
'0:21.930',0.445
'0:21.940',0.195
'0:21.950',0.305
'0:21.960',0.100
'0:21.970',0.285
'0:21.980',0.110
'0:21.990',0.135
'0:22.000',-0.095
'0:22.010',0.055
'0:22.020',0.285
'0:22.030',0.085
'0:22.040',-0.920
'0:22.050',-0.125
'0:22.060',2.025
'0:22.070',3.090
'0:22.080',0.690
'0:22.090',-1.225
'0:22.100',-1.575
'0:22.110',-0.270
'0:22.120',0.920
'0:22.130',1.730
'0:22.140',1.365
'0:22.150',1.045
'0:22.160',0.905
'0:22.170',1.865
'0:22.180',2.015
'0:22.190',2.015
'0:22.200',1.440
'0:22.210',1.160
'0:22.220',0.940
'0:22.230',0.915
'0:22.240',0.355
'0:22.250',0.315
'0:22.260',0.125
'0:22.270',0.230
'0:22.280',0.100
'0:22.290',0.280
'0:22.300',0.135
'0:22.310',0.265
'0:22.320',0.115
'0:22.330',0.245
'0:22.340',0.005
'0:22.350',0.160
'0:22.360',0.190
'0:22.370',0.230
'0:22.380',-0.265
'0:22.390',-0.080
'0:22.400',-0.190
'0:22.410',-0.070
'0:22.420',-0.225
'0:22.430',-0.120
'0:22.440',-0.420
'0:22.450',-0.270
'0:22.460',-0.385
'0:22.470',-0.330
'0:22.480',-0.435
'0:22.490',-0.450
'0:22.500',-0.880
'0:22.510',-0.615
'0:22.520',-0.715
'0:22.530',-0.525
'0:22.540',-0.675
'0:22.550',-0.500
'0:22.560',-0.670
'0:22.570',-0.480
'0:22.580',-0.470
'0:22.590',-0.210
'0:22.600',-0.425
'0:22.610',-0.295
'0:22.620',-0.470
'0:22.630',-0.305
'0:22.640',-0.305
'0:22.650',-0.100
'0:22.660',-0.325
'0:22.670',-0.170
'0:22.680',-0.425
'0:22.690',-0.395
'0:22.700',-0.510
'0:22.710',0.130
'0:22.720',-0.315
'0:22.730',-0.625
'0:22.740',-0.430
'0:22.750',0.055
'0:22.760',0.030
'0:22.770',0.225
'0:22.780',0.155
'0:22.790',0.370
'0:22.800',0.205
'0:22.810',0.340
'0:22.820',-1.085
'0:22.830',-1.565
'0:22.840',-0.810
'0:22.850',-0.085
'0:22.860',-0.090
'0:22.870',0.430
'0:22.880',0.305
'0:22.890',0.385
'0:22.900',0.065
'0:22.910',0.125
'0:22.920',1.470
'0:22.930',2.825
'0:22.940',3.620
'0:22.950',3.230
'0:22.960',-0.135
'0:22.970',-1.850
'0:22.980',-2.220
'0:22.990',-1.005
'0:23.000',-0.200
'0:23.010',0.215
'0:23.020',0.025
'0:23.030',0.190
'0:23.040',0.170
'0:23.050',0.105
'0:23.060',-0.245
'0:23.070',-0.080
'0:23.080',-0.175
'0:23.090',0.045
'0:23.100',-0.195
'0:23.110',-0.020
'0:23.120',0.070
'0:23.130',0.090
'0:23.140',-0.515
'0:23.150',-0.450
'0:23.160',-0.260
'0:23.170',0.400
'0:23.180',0.575
'0:23.190',1.040
'0:23.200',1.285
'0:23.210',1.795
'0:23.220',1.785
'0:23.230',1.780
'0:23.240',1.385
'0:23.250',1.360
'0:23.260',1.070
'0:23.270',1.270
'0:23.280',1.535
'0:23.290',1.865
'0:23.300',1.345
'0:23.310',0.975
'0:23.320',0.475
'0:23.330',0.475
'0:23.340',0.050
'0:23.350',-0.005
'0:23.360',-0.035
'0:23.370',0.065
'0:23.380',-0.850
'0:23.390',0.260
'0:23.400',1.270
'0:23.410',0.995
'0:23.420',0.925
'0:23.430',1.860
'0:23.440',2.255
'0:23.450',2.515
'0:23.460',2.620
'0:23.470',3.540
'0:23.480',3.830
'0:23.490',4.575
'0:23.500',5.190
'0:23.510',5.375
'0:23.520',4.965
'0:23.530',4.625
'0:23.540',4.105
'0:23.550',4.080
'0:23.560',3.735
'0:23.570',3.975
'0:23.580',4.215
'0:23.590',4.750
'0:23.600',4.975
'0:23.610',4.885
'0:23.620',4.100
'0:23.630',3.675
'0:23.640',2.545
'0:23.650',-9.075
'0:23.660',2.125
'0:23.670',6.785
'0:23.680',9.165
'0:23.690',10.235
'0:23.700',10.235
'0:23.710',10.235
'0:23.720',10.235
'0:23.730',10.235
'0:23.740',10.235
'0:23.750',10.235
'0:23.760',10.235
'0:23.770',10.235
'0:23.780',10.235
'0:23.790',10.235
'0:23.800',10.235
'0:23.810',10.235
'0:23.820',10.235
'0:23.830',10.235
'0:23.840',10.235
'0:23.850',10.235
'0:23.860',10.235
'0:23.870',10.235
'0:23.880',10.235
'0:23.890',10.235
'0:23.900',10.235
'0:23.910',10.235
'0:23.920',10.235
'0:23.930',10.235
'0:23.940',10.235
'0:23.950',10.235
'0:23.960',10.235
'0:23.970',10.235
'0:23.980',10.235
'0:23.990',10.235
'0:24.000',10.235
'0:24.010',10.235
'0:24.020',10.235
'0:24.030',10.235
'0:24.040',10.235
'0:24.050',10.235
'0:24.060',10.235
'0:24.070',10.235
'0:24.080',10.235
'0:24.090',10.235
'0:24.100',10.235
'0:24.110',10.235
'0:24.120',10.235
'0:24.130',10.235
'0:24.140',10.235
'0:24.150',10.235
'0:24.160',10.235
'0:24.170',10.235
'0:24.180',10.235
'0:24.190',10.235
'0:24.200',10.235
'0:24.210',10.235
'0:24.220',10.235
'0:24.230',10.235
'0:24.240',10.235
'0:24.250',10.235
'0:24.260',10.235
'0:24.270',10.235
'0:24.280',10.235
'0:24.290',10.235
'0:24.300',10.235
'0:24.310',10.235
'0:24.320',10.235
'0:24.330',10.235
'0:24.340',10.235
'0:24.350',10.235
'0:24.360',10.235
'0:24.370',10.235
'0:24.380',10.235
'0:24.390',10.235
'0:24.400',10.235
'0:24.410',10.235
'0:24.420',10.235
'0:24.430',10.235
'0:24.440',10.235
'0:24.450',10.235
'0:24.460',10.235
'0:24.470',10.235
'0:24.480',10.235
'0:24.490',10.235
'0:24.500',10.235
'0:24.510',10.235
'0:24.520',10.235
'0:24.530',10.235
'0:24.540',10.235
'0:24.550',10.235
'0:24.560',10.235
'0:24.570',10.235
'0:24.580',10.235
'0:24.590',10.235
'0:24.600',10.235
'0:24.610',10.235
'0:24.620',10.235
'0:24.630',10.235
'0:24.640',10.235
'0:24.650',10.235
'0:24.660',10.235
'0:24.670',10.235
'0:24.680',10.235
'0:24.690',10.235
'0:24.700',10.235
'0:24.710',10.235
'0:24.720',10.235
'0:24.730',10.235
'0:24.740',10.235
'0:24.750',10.235
'0:24.760',10.235
'0:24.770',10.235
'0:24.780',10.235
'0:24.790',10.235
'0:24.800',10.235
'0:24.810',10.235
'0:24.820',10.235
'0:24.830',10.235
'0:24.840',10.235
'0:24.850',10.235
'0:24.860',10.235
'0:24.870',10.235
'0:24.880',10.235
'0:24.890',10.235
'0:24.900',10.235
'0:24.910',10.235
'0:24.920',10.235
'0:24.930',10.235
'0:24.940',10.235
'0:24.950',10.235
'0:24.960',10.235
'0:24.970',10.235
'0:24.980',10.235
'0:24.990',10.235
'0:25.000',10.235
'0:25.010',10.235
'0:25.020',10.235
'0:25.030',10.235
'0:25.040',10.235
'0:25.050',10.235
'0:25.060',10.235
'0:25.070',10.235
'0:25.080',10.235
'0:25.090',10.235
'0:25.100',10.235
'0:25.110',10.235
'0:25.120',10.235
'0:25.130',10.235
'0:25.140',10.235
'0:25.150',10.235
'0:25.160',10.235
'0:25.170',10.235
'0:25.180',10.235
'0:25.190',10.235
'0:25.200',10.235
'0:25.210',10.235
'0:25.220',10.235
'0:25.230',10.235
'0:25.240',10.235
'0:25.250',10.235
'0:25.260',10.235
'0:25.270',10.235
'0:25.280',10.235
'0:25.290',10.235
'0:25.300',10.235
'0:25.310',10.235
'0:25.320',10.235
'0:25.330',10.235
'0:25.340',10.235
'0:25.350',10.235
'0:25.360',10.235
'0:25.370',10.235
'0:25.380',10.235
'0:25.390',10.235
'0:25.400',10.235
'0:25.410',10.235
'0:25.420',10.235
'0:25.430',10.235
'0:25.440',10.235
'0:25.450',10.235
'0:25.460',10.235
'0:25.470',10.235
'0:25.480',10.235
'0:25.490',10.235
'0:25.500',10.235
'0:25.510',10.235
'0:25.520',10.235
'0:25.530',10.235
'0:25.540',10.235
'0:25.550',10.235
'0:25.560',10.235
'0:25.570',10.235
'0:25.580',10.235
'0:25.590',10.235
'0:25.600',10.235
'0:25.610',10.235
'0:25.620',10.235
'0:25.630',10.235
'0:25.640',10.235
'0:25.650',10.235
'0:25.660',10.235
'0:25.670',10.235
'0:25.680',10.235
'0:25.690',10.235
'0:25.700',10.235
'0:25.710',10.235
'0:25.720',10.235
'0:25.730',10.235
'0:25.740',10.235
'0:25.750',10.235
'0:25.760',10.235
'0:25.770',10.235
'0:25.780',10.235
'0:25.790',10.235
'0:25.800',10.235
'0:25.810',10.235
'0:25.820',10.235
'0:25.830',10.235
'0:25.840',10.235
'0:25.850',10.235
'0:25.860',10.235
'0:25.870',10.235
'0:25.880',10.235
'0:25.890',10.235
'0:25.900',10.235
'0:25.910',10.235
'0:25.920',10.235
'0:25.930',10.235
'0:25.940',10.235
'0:25.950',10.235
'0:25.960',10.235
'0:25.970',10.235
'0:25.980',10.235
'0:25.990',10.235
'0:26.000',10.235
'0:26.010',10.235
'0:26.020',10.235
'0:26.030',10.235
'0:26.040',10.235
'0:26.050',10.235
'0:26.060',10.235
'0:26.070',10.235
'0:26.080',10.235
'0:26.090',10.235
'0:26.100',10.235
'0:26.110',10.235
'0:26.120',10.235
'0:26.130',10.235
'0:26.140',10.235
'0:26.150',10.235
'0:26.160',10.235
'0:26.170',10.235
'0:26.180',10.235
'0:26.190',10.235
'0:26.200',10.235
'0:26.210',10.235
'0:26.220',10.235
'0:26.230',10.235
'0:26.240',10.235
'0:26.250',10.235
'0:26.260',10.235
'0:26.270',10.235
'0:26.280',10.235
'0:26.290',10.235
'0:26.300',10.235
'0:26.310',10.235
'0:26.320',10.235
'0:26.330',10.235
'0:26.340',10.235
'0:26.350',10.235
'0:26.360',10.235
'0:26.370',10.235
'0:26.380',10.235
'0:26.390',10.235
'0:26.400',10.235
'0:26.410',10.235
'0:26.420',10.235
'0:26.430',10.235
'0:26.440',10.235
'0:26.450',10.235
'0:26.460',10.235
'0:26.470',10.235
'0:26.480',10.235
'0:26.490',10.235
'0:26.500',10.235
'0:26.510',10.235
'0:26.520',10.235
'0:26.530',10.235
'0:26.540',10.235
'0:26.550',10.235
'0:26.560',10.235
'0:26.570',10.235
'0:26.580',10.235
'0:26.590',10.235
'0:26.600',10.235
'0:26.610',10.235
'0:26.620',10.235
'0:26.630',10.235
'0:26.640',10.235
'0:26.650',10.235
'0:26.660',10.235
'0:26.670',10.235
'0:26.680',10.235
'0:26.690',10.235
'0:26.700',10.235
'0:26.710',10.235
'0:26.720',10.235
'0:26.730',10.235
'0:26.740',10.235
'0:26.750',10.235
'0:26.760',10.235
'0:26.770',10.235
'0:26.780',10.235
'0:26.790',10.235
'0:26.800',10.235
'0:26.810',10.235
'0:26.820',10.235
'0:26.830',10.235
'0:26.840',10.235
'0:26.850',10.235
'0:26.860',10.235
'0:26.870',10.235
'0:26.880',10.235
'0:26.890',10.235
'0:26.900',10.235
'0:26.910',10.235
'0:26.920',10.235
'0:26.930',10.235
'0:26.940',10.235
'0:26.950',10.235
'0:26.960',10.235
'0:26.970',10.235
'0:26.980',10.235
'0:26.990',10.235
'0:27.000',10.235
'0:27.010',10.235
'0:27.020',10.235
'0:27.030',10.235
'0:27.040',10.235
'0:27.050',10.235
'0:27.060',10.235
'0:27.070',10.235
'0:27.080',10.235
'0:27.090',10.235
'0:27.100',10.235
'0:27.110',10.235
'0:27.120',10.235
'0:27.130',10.235
'0:27.140',10.235
'0:27.150',10.235
'0:27.160',10.235
'0:27.170',10.235
'0:27.180',10.235
'0:27.190',10.235
'0:27.200',10.235
'0:27.210',10.235
'0:27.220',10.235
'0:27.230',10.235
'0:27.240',10.235
'0:27.250',10.235
'0:27.260',10.235
'0:27.270',10.235
'0:27.280',10.235
'0:27.290',10.235
'0:27.300',10.235
'0:27.310',10.235
'0:27.320',10.235
'0:27.330',10.235
'0:27.340',10.235
'0:27.350',10.235
'0:27.360',10.235
'0:27.370',10.235
'0:27.380',10.235
'0:27.390',10.235
'0:27.400',10.235
'0:27.410',10.235
'0:27.420',10.235
'0:27.430',10.235
'0:27.440',10.235
'0:27.450',10.235
'0:27.460',10.235
'0:27.470',10.235
'0:27.480',10.235
'0:27.490',10.235
'0:27.500',10.235
'0:27.510',10.235
'0:27.520',10.235
'0:27.530',10.235
'0:27.540',10.235
'0:27.550',10.235
'0:27.560',10.235
'0:27.570',10.235
'0:27.580',10.235
'0:27.590',10.235
'0:27.600',10.235
'0:27.610',10.235
'0:27.620',10.235
'0:27.630',10.235
'0:27.640',10.235
'0:27.650',10.235
'0:27.660',10.235
'0:27.670',10.235
'0:27.680',10.235
'0:27.690',10.235
'0:27.700',10.235
'0:27.710',10.235
'0:27.720',10.235
'0:27.730',10.235
'0:27.740',10.235
'0:27.750',10.235
'0:27.760',10.235
'0:27.770',10.235
'0:27.780',10.235
'0:27.790',10.235
'0:27.800',10.235
'0:27.810',10.235
'0:27.820',10.235
'0:27.830',10.235
'0:27.840',10.235
'0:27.850',10.235
'0:27.860',10.235
'0:27.870',10.235
'0:27.880',10.235
'0:27.890',10.235
'0:27.900',10.235
'0:27.910',10.235
'0:27.920',10.235
'0:27.930',10.235
'0:27.940',10.235
'0:27.950',10.235
'0:27.960',10.235
'0:27.970',10.235
'0:27.980',10.235
'0:27.990',10.235
'0:28.000',10.235
'0:28.010',10.235
'0:28.020',10.235
'0:28.030',10.235
'0:28.040',10.235
'0:28.050',10.235
'0:28.060',10.235
'0:28.070',10.235
'0:28.080',10.235
'0:28.090',10.235
'0:28.100',10.235
'0:28.110',10.235
'0:28.120',10.235
'0:28.130',6.550
'0:28.140',0.605
'0:28.150',2.910
'0:28.160',-0.990
'0:28.170',7.210
'0:28.180',10.235
'0:28.190',10.235
'0:28.200',10.235
'0:28.210',10.235
'0:28.220',10.235
'0:28.230',10.235
'0:28.240',10.235
'0:28.250',7.035
'0:28.260',1.055
'0:28.270',3.715
'0:28.280',-0.650
'0:28.290',4.235
'0:28.300',-2.705
'0:28.310',3.415
'0:28.320',4.850
'0:28.330',10.235
'0:28.340',10.235
'0:28.350',10.235
'0:28.360',10.235
'0:28.370',10.235
'0:28.380',10.235
'0:28.390',10.235
'0:28.400',10.235
'0:28.410',10.235
'0:28.420',10.235
'0:28.430',10.235
'0:28.440',10.235
'0:28.450',8.830
'0:28.460',-1.995
'0:28.470',-10.240
'0:28.480',-10.240
'0:28.490',-10.240
'0:28.500',-10.240
'0:28.510',-10.240
'0:28.520',-10.240
'0:28.530',-2.580
'0:28.540',10.235
'0:28.550',10.235
'0:28.560',10.235
'0:28.570',10.235
'0:28.580',10.235
'0:28.590',10.235
'0:28.600',10.235
'0:28.610',10.235
'0:28.620',10.235
'0:28.630',10.235
'0:28.640',10.235
'0:28.650',10.235
'0:28.660',10.235
'0:28.670',10.235
'0:28.680',10.235
'0:28.690',10.235
'0:28.700',10.235
'0:28.710',10.235
'0:28.720',10.235
'0:28.730',10.235
'0:28.740',10.235
'0:28.750',10.235
'0:28.760',10.235
'0:28.770',10.235
'0:28.780',10.235
'0:28.790',10.235
'0:28.800',10.235
'0:28.810',10.235
'0:28.820',10.235
'0:28.830',10.235
'0:28.840',10.235
'0:28.850',10.235
'0:28.860',10.235
'0:28.870',10.235
'0:28.880',10.235
'0:28.890',10.235
'0:28.900',10.235
'0:28.910',10.235
'0:28.920',10.235
'0:28.930',10.235
'0:28.940',10.235
'0:28.950',10.235
'0:28.960',10.235
'0:28.970',10.235
'0:28.980',10.235
'0:28.990',10.235
'0:29.000',10.235
'0:29.010',10.235
'0:29.020',10.235
'0:29.030',10.235
'0:29.040',10.235
'0:29.050',10.235
'0:29.060',10.235
'0:29.070',10.235
'0:29.080',10.235
'0:29.090',10.235
'0:29.100',10.235
'0:29.110',10.235
'0:29.120',10.235
'0:29.130',10.235
'0:29.140',10.235
'0:29.150',-6.900
'0:29.160',-10.240
'0:29.170',-10.240
'0:29.180',-10.240
'0:29.190',-10.240
'0:29.200',-10.240
'0:29.210',-10.240
'0:29.220',-10.240
'0:29.230',-10.240
'0:29.240',-10.240
'0:29.250',-10.240
'0:29.260',-10.240
'0:29.270',-10.240
'0:29.280',-10.240
'0:29.290',-10.240
'0:29.300',-10.240
'0:29.310',-10.240
'0:29.320',-10.240
'0:29.330',-10.240
'0:29.340',-10.240
'0:29.350',-10.240
'0:29.360',-10.240
'0:29.370',-4.485
'0:29.380',2.435
'0:29.390',-10.240
'0:29.400',-10.240
'0:29.410',-10.240
'0:29.420',-10.240
'0:29.430',-10.240
'0:29.440',-7.515
'0:29.450',-10.240
'0:29.460',-10.240
'0:29.470',-10.240
'0:29.480',-10.240
'0:29.490',-10.240
'0:29.500',-10.240
'0:29.510',-10.240
'0:29.520',-10.240
'0:29.530',-10.240
'0:29.540',-10.240
'0:29.550',-10.240
'0:29.560',-10.240
'0:29.570',-10.240
'0:29.580',-10.240
'0:29.590',-10.240
'0:29.600',-10.240
'0:29.610',-10.240
'0:29.620',-10.240
'0:29.630',-10.240
'0:29.640',-10.240
'0:29.650',-10.240
'0:29.660',-10.240
'0:29.670',-10.240
'0:29.680',-10.240
'0:29.690',-10.240
'0:29.700',-10.240
'0:29.710',-10.240
'0:29.720',-10.240
'0:29.730',-10.240
'0:29.740',-10.240
'0:29.750',-10.240
'0:29.760',-10.240
'0:29.770',-10.240
'0:29.780',-10.240
'0:29.790',-10.240
'0:29.800',-10.240
'0:29.810',-10.240
'0:29.820',-10.240
'0:29.830',-10.240
'0:29.840',-10.240
'0:29.850',-10.240
'0:29.860',-10.240
'0:29.870',-10.240
'0:29.880',-10.240
'0:29.890',-10.240
'0:29.900',-10.240
'0:29.910',-10.240
'0:29.920',-10.240
'0:29.930',-10.240
'0:29.940',-10.240
'0:29.950',-10.240
'0:29.960',-10.240
'0:29.970',-10.240
'0:29.980',-10.240
'0:29.990',-10.240
'0:30.000',-10.240
'0:30.010',-10.240
'0:30.020',-10.240
'0:30.030',-10.240
'0:30.040',-10.240
'0:30.050',-10.240
'0:30.060',-10.240
'0:30.070',-10.240
'0:30.080',-10.240
'0:30.090',-10.240
'0:30.100',-10.240
'0:30.110',-10.240
'0:30.120',-10.240
'0:30.130',-10.240
'0:30.140',-10.240
'0:30.150',-10.240
'0:30.160',-10.240
'0:30.170',-10.240
'0:30.180',-10.240
'0:30.190',-10.240
'0:30.200',-10.240
'0:30.210',-10.240
'0:30.220',-10.240
'0:30.230',-10.240
'0:30.240',-10.240
'0:30.250',-10.240
'0:30.260',-10.240
'0:30.270',-10.240
'0:30.280',-10.240
'0:30.290',-10.240
'0:30.300',-10.240
'0:30.310',-10.240
'0:30.320',-10.240
'0:30.330',-10.240
'0:30.340',-10.240
'0:30.350',-10.240
'0:30.360',-10.240
'0:30.370',-10.240
'0:30.380',-10.240
'0:30.390',-10.240
'0:30.400',-10.240
'0:30.410',-10.240
'0:30.420',-10.240
'0:30.430',-10.240
'0:30.440',-10.240
'0:30.450',-10.240
'0:30.460',-10.240
'0:30.470',-10.240
'0:30.480',-10.240
'0:30.490',-10.240
'0:30.500',-10.240
'0:30.510',-10.240
'0:30.520',-10.240
'0:30.530',-10.240
'0:30.540',-10.240
'0:30.550',-10.240
'0:30.560',-10.240
'0:30.570',-10.240
'0:30.580',-10.240
'0:30.590',-10.240
'0:30.600',-10.240
'0:30.610',-10.240
'0:30.620',-10.240
'0:30.630',-10.240
'0:30.640',-10.240
'0:30.650',-10.240
'0:30.660',-10.240
'0:30.670',-10.240
'0:30.680',-10.240
'0:30.690',-10.240
'0:30.700',-10.240
'0:30.710',-10.240
'0:30.720',-10.240
'0:30.730',-10.240
'0:30.740',-10.240
'0:30.750',-10.240
'0:30.760',-10.240
'0:30.770',-10.240
'0:30.780',-10.240
'0:30.790',-10.240
'0:30.800',-10.240
'0:30.810',-10.240
'0:30.820',-10.240
'0:30.830',-10.240
'0:30.840',-10.240
'0:30.850',-10.240
'0:30.860',-10.240
'0:30.870',-10.240
'0:30.880',-10.240
'0:30.890',-10.240
'0:30.900',-10.240
'0:30.910',-10.240
'0:30.920',-10.240
'0:30.930',-10.240
'0:30.940',-10.240
'0:30.950',-10.240
'0:30.960',-10.240
'0:30.970',-10.240
'0:30.980',-10.240
'0:30.990',-10.240
'0:31.000',-10.240
'0:31.010',-10.240
'0:31.020',-10.240
'0:31.030',-10.240
'0:31.040',-10.240
'0:31.050',-10.240
'0:31.060',-10.240
'0:31.070',-10.240
'0:31.080',-10.240
'0:31.090',-10.240
'0:31.100',-10.240
'0:31.110',-10.240
'0:31.120',-10.240
'0:31.130',-10.240
'0:31.140',-10.240
'0:31.150',-10.240
'0:31.160',-10.240
'0:31.170',-10.240
'0:31.180',-10.240
'0:31.190',-10.240
'0:31.200',-10.240
'0:31.210',-10.240
'0:31.220',-10.240
'0:31.230',-10.240
'0:31.240',-10.240
'0:31.250',-10.240
'0:31.260',-10.240
'0:31.270',-10.240
'0:31.280',-10.240
'0:31.290',-10.240
'0:31.300',-10.240
'0:31.310',-10.240
'0:31.320',-10.240
'0:31.330',-10.240
'0:31.340',-10.240
'0:31.350',-10.240
'0:31.360',-10.240
'0:31.370',-10.240
'0:31.380',-10.240
'0:31.390',-10.240
'0:31.400',-10.240
'0:31.410',-10.240
'0:31.420',-10.240
'0:31.430',-10.240
'0:31.440',-10.240
'0:31.450',-10.240
'0:31.460',-10.240
'0:31.470',-10.240
'0:31.480',-10.240
'0:31.490',-10.240
'0:31.500',-10.240
'0:31.510',-10.240
'0:31.520',-10.240
'0:31.530',-10.240
'0:31.540',-10.240
'0:31.550',-10.240
'0:31.560',-10.240
'0:31.570',-10.240
'0:31.580',-10.240
'0:31.590',-10.240
'0:31.600',-10.240
'0:31.610',-10.240
'0:31.620',-10.240
'0:31.630',-10.240
'0:31.640',-10.240
'0:31.650',-10.240
'0:31.660',-10.240
'0:31.670',-10.240
'0:31.680',-10.240
'0:31.690',-10.240
'0:31.700',-10.240
'0:31.710',-10.240
'0:31.720',-10.240
'0:31.730',-10.240
'0:31.740',-10.240
'0:31.750',-10.240
'0:31.760',-10.240
'0:31.770',-10.240
'0:31.780',-10.240
'0:31.790',-10.240
'0:31.800',-10.240
'0:31.810',-10.240
'0:31.820',-10.240
'0:31.830',-10.240
'0:31.840',-10.240
'0:31.850',-10.240
'0:31.860',-10.240
'0:31.870',-10.240
'0:31.880',-10.240
'0:31.890',-10.240
'0:31.900',-10.240
'0:31.910',-10.240
'0:31.920',-10.240
'0:31.930',-10.240
'0:31.940',-10.240
'0:31.950',-10.240
'0:31.960',-10.240
'0:31.970',-10.240
'0:31.980',-10.240
'0:31.990',-10.240
'0:32.000',-10.240
'0:32.010',-10.240
'0:32.020',-10.240
'0:32.030',-10.240
'0:32.040',-10.240
'0:32.050',-10.240
'0:32.060',-10.240
'0:32.070',-10.240
'0:32.080',-10.240
'0:32.090',-10.240
'0:32.100',-10.240
'0:32.110',-10.240
'0:32.120',-10.240
'0:32.130',-10.240
'0:32.140',-10.240
'0:32.150',-10.240
'0:32.160',-10.240
'0:32.170',-10.240
'0:32.180',-10.240
'0:32.190',-10.240
'0:32.200',-10.240
'0:32.210',-10.240
'0:32.220',-10.240
'0:32.230',-10.240
'0:32.240',-10.240
'0:32.250',-10.240
'0:32.260',-10.240
'0:32.270',-10.240
'0:32.280',-10.240
'0:32.290',-10.240
'0:32.300',-10.240
'0:32.310',-10.240
'0:32.320',-10.240
'0:32.330',-10.240
'0:32.340',-10.240
'0:32.350',-10.240
'0:32.360',-10.240
'0:32.370',-10.240
'0:32.380',-10.240
'0:32.390',-10.240
'0:32.400',-10.240
'0:32.410',-10.240
'0:32.420',-10.240
'0:32.430',-9.680
'0:32.440',-8.270
'0:32.450',-10.240
'0:32.460',-10.240
'0:32.470',-10.240
'0:32.480',-10.240
'0:32.490',-10.240
'0:32.500',-10.240
'0:32.510',-10.240
'0:32.520',-10.240
'0:32.530',-10.240
'0:32.540',-10.240
'0:32.550',-10.240
'0:32.560',-10.240
'0:32.570',-10.240
'0:32.580',-10.240
'0:32.590',-10.240
'0:32.600',-10.240
'0:32.610',-10.240
'0:32.620',-10.240
'0:32.630',-10.240
'0:32.640',-10.240
'0:32.650',-10.240
'0:32.660',-10.240
'0:32.670',-10.240
'0:32.680',-10.240
'0:32.690',-10.240
'0:32.700',-10.240
'0:32.710',-10.240
'0:32.720',-10.240
'0:32.730',-10.240
'0:32.740',-10.240
'0:32.750',-10.240
'0:32.760',-10.240
'0:32.770',-10.240
'0:32.780',-10.240
'0:32.790',-10.240
'0:32.800',-10.240
'0:32.810',-10.240
'0:32.820',-10.240
'0:32.830',-10.240
'0:32.840',-10.240
'0:32.850',-10.240
'0:32.860',-10.240
'0:32.870',-10.240
'0:32.880',-10.240
'0:32.890',-10.240
'0:32.900',-10.240
'0:32.910',-10.240
'0:32.920',-10.240
'0:32.930',-10.240
'0:32.940',-10.240
'0:32.950',-10.240
'0:32.960',-10.240
'0:32.970',-10.240
'0:32.980',-10.240
'0:32.990',-10.240
'0:33.000',-10.240
'0:33.010',-10.240
'0:33.020',-10.240
'0:33.030',-10.240
'0:33.040',-10.240
'0:33.050',-10.240
'0:33.060',-10.240
'0:33.070',-10.240
'0:33.080',-10.240
'0:33.090',-10.240
'0:33.100',-10.240
'0:33.110',-10.240
'0:33.120',-10.240
'0:33.130',-10.240
'0:33.140',-10.240
'0:33.150',-10.240
'0:33.160',-10.240
'0:33.170',-10.240
'0:33.180',-10.240
'0:33.190',-10.180
'0:33.200',-10.160
'0:33.210',-10.175
'0:33.220',-9.995
'0:33.230',-10.240
'0:33.240',-10.240
'0:33.250',-10.240
'0:33.260',-10.240
'0:33.270',-10.240
'0:33.280',-10.240
'0:33.290',-10.240
'0:33.300',-9.990
'0:33.310',-8.240
'0:33.320',-5.715
'0:33.330',-7.135
'0:33.340',-10.240
'0:33.350',-10.240
'0:33.360',-10.240
'0:33.370',-10.240
'0:33.380',-10.190
'0:33.390',-10.010
'0:33.400',-9.820
'0:33.410',-9.840
'0:33.420',-9.840
'0:33.430',-9.745
'0:33.440',-9.615
'0:33.450',-9.565
'0:33.460',-9.185
'0:33.470',-9.070
'0:33.480',-9.530
'0:33.490',-9.795
'0:33.500',-9.655
'0:33.510',-9.425
'0:33.520',-9.275
'0:33.530',-9.185
'0:33.540',-9.110
'0:33.550',-9.055
'0:33.560',-8.875
'0:33.570',-8.705
'0:33.580',-8.720
'0:33.590',-8.655
'0:33.600',-8.540
'0:33.610',-8.660
'0:33.620',-8.655
'0:33.630',-8.500
'0:33.640',-8.840
'0:33.650',-9.125
'0:33.660',-8.960
'0:33.670',-8.980
'0:33.680',-8.995
'0:33.690',-9.015
'0:33.700',-9.020
'0:33.710',-9.060
'0:33.720',-9.035
'0:33.730',-9.050
'0:33.740',-9.025
'0:33.750',-9.000
'0:33.760',-9.055
'0:33.770',-9.020
'0:33.780',-8.905
'0:33.790',-8.875
'0:33.800',-8.800
'0:33.810',-8.780
'0:33.820',-8.675
'0:33.830',-8.700
'0:33.840',-8.720
'0:33.850',-8.660
'0:33.860',-8.560
'0:33.870',-8.520
'0:33.880',-8.435
'0:33.890',-8.460
'0:33.900',-8.380
'0:33.910',-8.335
'0:33.920',-8.300
'0:33.930',-8.290
'0:33.940',-8.305
'0:33.950',-8.360
'0:33.960',-8.315
'0:33.970',-8.345
'0:33.980',-8.290
'0:33.990',-8.080
'0:34.000',-8.055
'0:34.010',-8.270
'0:34.020',-8.165
'0:34.030',-8.180
'0:34.040',-8.215
'0:34.050',-8.140
'0:34.060',-8.020
'0:34.070',-7.970
'0:34.080',-7.870
'0:34.090',-7.855
'0:34.100',-7.780
'0:34.110',-7.835
'0:34.120',-7.835
'0:34.130',-7.800
'0:34.140',-7.760
'0:34.150',-7.830
'0:34.160',-7.815
'0:34.170',-7.905
'0:34.180',-7.920
'0:34.190',-7.925
'0:34.200',-7.825
'0:34.210',-7.845
'0:34.220',-7.815
'0:34.230',-7.805
'0:34.240',-7.745
'0:34.250',-7.365
'0:34.260',-5.300
'0:34.270',-3.315
'0:34.280',-5.010
'0:34.290',-8.300
'0:34.300',-9.580
'0:34.310',-9.100
'0:34.320',-8.145
'0:34.330',-7.840
'0:34.340',-7.660
'0:34.350',-7.475
'0:34.360',-7.435
'0:34.370',-7.465
'0:34.380',-7.410
'0:34.390',-7.365
'0:34.400',-7.260
'0:34.410',-7.275
'0:34.420',-7.240
'0:34.430',-7.175
'0:34.440',-6.960
'0:34.450',-7.070
'0:34.460',-7.195
'0:34.470',-7.150
'0:34.480',-7.020
'0:34.490',-6.960
'0:34.500',-6.840
'0:34.510',-6.845
'0:34.520',-6.730
'0:34.530',-6.605
'0:34.540',-6.515
'0:34.550',-6.520
'0:34.560',-6.440
'0:34.570',-6.475
'0:34.580',-6.500
'0:34.590',-6.680
'0:34.600',-6.715
'0:34.610',-6.800
'0:34.620',-6.780
'0:34.630',-6.850
'0:34.640',-6.895
'0:34.650',-6.935
'0:34.660',-6.925
'0:34.670',-6.950
'0:34.680',-6.890
'0:34.690',-6.930
'0:34.700',-6.935
'0:34.710',-6.955
'0:34.720',-6.875
'0:34.730',-6.935
'0:34.740',-6.860
'0:34.750',-6.790
'0:34.760',-6.785
'0:34.770',-6.815
'0:34.780',-6.790
'0:34.790',-6.875
'0:34.800',-6.700
'0:34.810',-6.715
'0:34.820',-6.675
'0:34.830',-6.655
'0:34.840',-6.585
'0:34.850',-6.600
'0:34.860',-6.555
'0:34.870',-6.435
'0:34.880',-6.415
'0:34.890',-6.640
'0:34.900',-6.640
'0:34.910',-6.555
'0:34.920',-6.500
'0:34.930',-6.525
'0:34.940',-6.415
'0:34.950',-6.440
'0:34.960',-6.390
'0:34.970',-6.425
'0:34.980',-6.375
'0:34.990',-6.280
'0:35.000',-6.175
'0:35.010',-6.165
'0:35.020',-6.105
'0:35.030',-6.200
'0:35.040',-6.155
'0:35.050',-6.120
'0:35.060',-6.110
'0:35.070',-6.155
'0:35.080',-6.105
'0:35.090',-6.235
'0:35.100',-6.230
'0:35.110',-6.250
'0:35.120',-6.205
'0:35.130',-6.210
'0:35.140',-6.115
'0:35.150',-6.155
'0:35.160',-6.135
'0:35.170',-6.090
'0:35.180',-5.655
'0:35.190',-3.715
'0:35.200',-1.810
'0:35.210',-3.875
'0:35.220',-7.110
'0:35.230',-8.210
'0:35.240',-7.660
'0:35.250',-6.795
'0:35.260',-6.255
'0:35.270',-6.060
'0:35.280',-5.910
'0:35.290',-5.855
'0:35.300',-5.765
'0:35.310',-5.830
'0:35.320',-5.735
'0:35.330',-5.680
'0:35.340',-5.675
'0:35.350',-5.695
'0:35.360',-5.590
'0:35.370',-5.625
'0:35.380',-5.550
'0:35.390',-5.550
'0:35.400',-5.450
'0:35.410',-5.445
'0:35.420',-5.380
'0:35.430',-5.270
'0:35.440',-5.135
'0:35.450',-5.160
'0:35.460',-5.035
'0:35.470',-4.905
'0:35.480',-4.880
'0:35.490',-5.015
'0:35.500',-5.035
'0:35.510',-5.160
'0:35.520',-5.190
'0:35.530',-5.270
'0:35.540',-5.330
'0:35.550',-5.415
'0:35.560',-5.380
'0:35.570',-5.480
'0:35.580',-5.440
'0:35.590',-5.495
'0:35.600',-5.375
'0:35.610',-5.405
'0:35.620',-5.535
'0:35.630',-5.635
'0:35.640',-5.595
'0:35.650',-5.595
'0:35.660',-5.490
'0:35.670',-5.530
'0:35.680',-5.500
'0:35.690',-5.475
'0:35.700',-5.400
'0:35.710',-5.445
'0:35.720',-5.315
'0:35.730',-5.265
'0:35.740',-5.275
'0:35.750',-5.325
'0:35.760',-5.220
'0:35.770',-5.270
'0:35.780',-5.215
'0:35.790',-5.195
'0:35.800',-5.155
'0:35.810',-5.205
'0:35.820',-5.140
'0:35.830',-5.130
'0:35.840',-5.090
'0:35.850',-5.115
'0:35.860',-5.070
'0:35.870',-5.145
'0:35.880',-5.125
'0:35.890',-5.070
'0:35.900',-4.950
'0:35.910',-4.955
'0:35.920',-4.845
'0:35.930',-4.825
'0:35.940',-4.795
'0:35.950',-4.835
'0:35.960',-4.760
'0:35.970',-4.770
'0:35.980',-4.830
'0:35.990',-5.005
'0:36.000',-4.895
'0:36.010',-4.955
'0:36.020',-4.955
'0:36.030',-4.950
'0:36.040',-4.905
'0:36.050',-4.955
'0:36.060',-4.835
'0:36.070',-4.850
'0:36.080',-4.835
'0:36.090',-4.400
'0:36.100',-2.380
'0:36.110',-0.840
'0:36.120',-2.930
'0:36.130',-6.090
'0:36.140',-7.050
'0:36.150',-6.545
'0:36.160',-5.510
'0:36.170',-5.035
'0:36.180',-4.800
'0:36.190',-4.745
'0:36.200',-4.615
'0:36.210',-4.500
'0:36.220',-4.455
'0:36.230',-4.515
'0:36.240',-4.425
'0:36.250',-4.475
'0:36.260',-4.400
'0:36.270',-4.390
'0:36.280',-4.290
'0:36.290',-4.265
'0:36.300',-4.190
'0:36.310',-4.250
'0:36.320',-4.165
'0:36.330',-4.100
'0:36.340',-4.005
'0:36.350',-4.015
'0:36.360',-3.860
'0:36.370',-3.785
'0:36.380',-3.705
'0:36.390',-3.770
'0:36.400',-3.745
'0:36.410',-3.865
'0:36.420',-3.865
'0:36.430',-3.915
'0:36.440',-3.975
'0:36.450',-4.160
'0:36.460',-4.165
'0:36.470',-4.225
'0:36.480',-4.235
'0:36.490',-4.325
'0:36.500',-4.275
'0:36.510',-4.335
'0:36.520',-4.285
'0:36.530',-4.345
'0:36.540',-4.330
'0:36.550',-4.385
'0:36.560',-4.225
'0:36.570',-4.290
'0:36.580',-4.355
'0:36.590',-4.390
'0:36.600',-4.255
'0:36.610',-4.260
'0:36.620',-4.195
'0:36.630',-4.220
'0:36.640',-4.115
'0:36.650',-4.135
'0:36.660',-4.105
'0:36.670',-4.210
'0:36.680',-4.140
'0:36.690',-4.140
'0:36.700',-4.055
'0:36.710',-4.090
'0:36.720',-4.080
'0:36.730',-4.165
'0:36.740',-4.050
'0:36.750',-4.090
'0:36.760',-4.025
'0:36.770',-4.035
'0:36.780',-3.975
'0:36.790',-3.975
'0:36.800',-3.855
'0:36.810',-3.865
'0:36.820',-3.780
'0:36.830',-3.815
'0:36.840',-3.735
'0:36.850',-3.820
'0:36.860',-3.825
'0:36.870',-3.945
'0:36.880',-3.945
'0:36.890',-4.035
'0:36.900',-3.960
'0:36.910',-4.070
'0:36.920',-4.010
'0:36.930',-3.965
'0:36.940',-3.920
'0:36.950',-3.980
'0:36.960',-3.900
'0:36.970',-3.875
'0:36.980',-2.635
'0:36.990',-0.750
'0:37.000',-1.470
'0:37.010',-4.485
'0:37.020',-6.035
'0:37.030',-6.105
'0:37.040',-5.100
'0:37.050',-4.370
'0:37.060',-3.995
'0:37.070',-3.875
'0:37.080',-3.765
'0:37.090',-3.750
'0:37.100',-3.665
'0:37.110',-3.720
'0:37.120',-3.650
'0:37.130',-3.665
'0:37.140',-3.545
'0:37.150',-3.560
'0:37.160',-3.525
'0:37.170',-3.555
'0:37.180',-3.410
'0:37.190',-3.485
'0:37.200',-3.425
'0:37.210',-3.405
'0:37.220',-3.230
'0:37.230',-3.275
'0:37.240',-3.145
'0:37.250',-3.120
'0:37.260',-3.035
'0:37.270',-3.090
'0:37.280',-3.065
'0:37.290',-3.135
'0:37.300',-3.120
'0:37.310',-3.250
'0:37.320',-3.255
'0:37.330',-3.435
'0:37.340',-3.435
'0:37.350',-3.570
'0:37.360',-3.560
'0:37.370',-3.660
'0:37.380',-3.605
'0:37.390',-3.690
'0:37.400',-3.630
'0:37.410',-3.675
'0:37.420',-3.625
'0:37.430',-3.735
'0:37.440',-3.635
'0:37.450',-3.610
'0:37.460',-3.560
'0:37.470',-3.665
'0:37.480',-3.570
'0:37.490',-3.555
'0:37.500',-3.475
'0:37.510',-3.535
'0:37.520',-3.455
'0:37.530',-3.470
'0:37.540',-3.390
'0:37.550',-3.480
'0:37.560',-3.405
'0:37.570',-3.460
'0:37.580',-3.380
'0:37.590',-3.455
'0:37.600',-3.385
'0:37.610',-3.425
'0:37.620',-3.345
'0:37.630',-3.420
'0:37.640',-3.285
'0:37.650',-3.305
'0:37.660',-3.240
'0:37.670',-3.280
'0:37.680',-3.155
'0:37.690',-3.180
'0:37.700',-3.045
'0:37.710',-3.115
'0:37.720',-3.135
'0:37.730',-3.245
'0:37.740',-3.215
'0:37.750',-3.280
'0:37.760',-3.245
'0:37.770',-3.370
'0:37.780',-3.285
'0:37.790',-3.350
'0:37.800',-3.290
'0:37.810',-3.345
'0:37.820',-3.255
'0:37.830',-3.305
'0:37.840',-2.940
'0:37.850',-1.510
'0:37.860',0.110
'0:37.870',-1.555
'0:37.880',-4.355
'0:37.890',-5.610
'0:37.900',-5.220
'0:37.910',-4.270
'0:37.920',-3.525
'0:37.930',-3.350
'0:37.940',-3.120
'0:37.950',-3.140
'0:37.960',-3.055
'0:37.970',-3.045
'0:37.980',-2.960
'0:37.990',-3.055
'0:38.000',-2.945
'0:38.010',-3.020
'0:38.020',-2.900
'0:38.030',-2.930
'0:38.040',-2.780
'0:38.050',-2.870
'0:38.060',-2.760
'0:38.070',-2.770
'0:38.080',-2.675
'0:38.090',-2.695
'0:38.100',-2.545
'0:38.110',-2.510
'0:38.120',-2.385
'0:38.130',-2.445
'0:38.140',-2.390
'0:38.150',-2.480
'0:38.160',-2.370
'0:38.170',-2.515
'0:38.180',-2.575
'0:38.190',-2.760
'0:38.200',-2.745
'0:38.210',-2.830
'0:38.220',-2.855
'0:38.230',-2.995
'0:38.240',-2.900
'0:38.250',-3.005
'0:38.260',-2.975
'0:38.270',-3.120
'0:38.280',-3.015
'0:38.290',-3.065
'0:38.300',-3.005
'0:38.310',-3.070
'0:38.320',-2.945
'0:38.330',-3.010
'0:38.340',-2.900
'0:38.350',-2.945
'0:38.360',-2.845
'0:38.370',-2.910
'0:38.380',-2.845
'0:38.390',-2.910
'0:38.400',-2.835
'0:38.410',-2.910
'0:38.420',-2.795
'0:38.430',-2.900
'0:38.440',-2.790
'0:38.450',-2.865
'0:38.460',-2.760
'0:38.470',-2.875
'0:38.480',-2.810
'0:38.490',-2.845
'0:38.500',-2.775
'0:38.510',-2.795
'0:38.520',-2.635
'0:38.530',-2.695
'0:38.540',-2.595
'0:38.550',-2.625
'0:38.560',-2.520
'0:38.570',-2.700
'0:38.580',-2.655
'0:38.590',-2.780
'0:38.600',-2.715
'0:38.610',-2.835
'0:38.620',-2.775
'0:38.630',-2.890
'0:38.640',-2.790
'0:38.650',-2.850
'0:38.660',-2.730
'0:38.670',-2.795
'0:38.680',-2.760
'0:38.690',-2.675
'0:38.700',-1.330
'0:38.710',0.370
'0:38.720',-0.715
'0:38.730',-3.795
'0:38.740',-4.955
'0:38.750',-4.955
'0:38.760',-3.935
'0:38.770',-3.190
'0:38.780',-2.820
'0:38.790',-2.725
'0:38.800',-2.585
'0:38.810',-2.645
'0:38.820',-2.510
'0:38.830',-2.585
'0:38.840',-2.430
'0:38.850',-2.495
'0:38.860',-2.410
'0:38.870',-2.480
'0:38.880',-2.395
'0:38.890',-2.410
'0:38.900',-2.325
'0:38.910',-2.415
'0:38.920',-2.205
'0:38.930',-2.210
'0:38.940',-2.085
'0:38.950',-2.145
'0:38.960',-1.965
'0:38.970',-1.955
'0:38.980',-1.840
'0:38.990',-1.930
'0:39.000',-1.880
'0:39.010',-1.995
'0:39.020',-1.950
'0:39.030',-2.180
'0:39.040',-2.190
'0:39.050',-2.350
'0:39.060',-2.320
'0:39.070',-2.485
'0:39.080',-2.455
'0:39.090',-2.595
'0:39.100',-2.535
'0:39.110',-2.625
'0:39.120',-2.525
'0:39.130',-2.685
'0:39.140',-2.590
'0:39.150',-2.665
'0:39.160',-2.605
'0:39.170',-2.690
'0:39.180',-2.560
'0:39.190',-2.630
'0:39.200',-2.495
'0:39.210',-2.585
'0:39.220',-2.525
'0:39.230',-2.560
'0:39.240',-2.405
'0:39.250',-2.505
'0:39.260',-2.405
'0:39.270',-2.475
'0:39.280',-2.385
'0:39.290',-2.490
'0:39.300',-2.395
'0:39.310',-2.475
'0:39.320',-2.380
'0:39.330',-2.445
'0:39.340',-2.310
'0:39.350',-2.370
'0:39.360',-2.240
'0:39.370',-2.305
'0:39.380',-2.185
'0:39.390',-2.175
'0:39.400',-2.115
'0:39.410',-2.315
'0:39.420',-2.275
'0:39.430',-2.415
'0:39.440',-2.350
'0:39.450',-2.440
'0:39.460',-2.385
'0:39.470',-2.495
'0:39.480',-2.350
'0:39.490',-2.415
'0:39.500',-2.345
'0:39.510',-2.445
'0:39.520',-2.270
'0:39.530',-1.625
'0:39.540',0.605
'0:39.550',0.840
'0:39.560',-2.055
'0:39.570',-4.330
'0:39.580',-4.555
'0:39.590',-4.035
'0:39.600',-2.935
'0:39.610',-2.600
'0:39.620',-2.320
'0:39.630',-2.310
'0:39.640',-2.130
'0:39.650',-2.160
'0:39.660',-2.065
'0:39.670',-2.165
'0:39.680',-2.020
'0:39.690',-2.055
'0:39.700',-1.965
'0:39.710',-2.055
'0:39.720',-1.935
'0:39.730',-2.000
'0:39.740',-1.865
'0:39.750',-1.920
'0:39.760',-1.755
'0:39.770',-1.780
'0:39.780',-1.590
'0:39.790',-1.650
'0:39.800',-1.505
'0:39.810',-1.520
'0:39.820',-1.430
'0:39.830',-1.540
'0:39.840',-1.445
'0:39.850',-1.605
'0:39.860',-1.605
'0:39.870',-1.825
'0:39.880',-1.830
'0:39.890',-2.015
'0:39.900',-1.985
'0:39.910',-2.115
'0:39.920',-2.030
'0:39.930',-2.155
'0:39.940',-2.110
'0:39.950',-2.260
'0:39.960',-2.190
'0:39.970',-2.280
'0:39.980',-2.160
'0:39.990',-2.260
'0:40.000',-2.140
'0:40.010',-2.175
'0:40.020',-2.115
'0:40.030',-2.235
'0:40.040',-2.075
'0:40.050',-2.135
'0:40.060',-2.000
'0:40.070',-2.055
'0:40.080',-1.925
'0:40.090',-2.025
'0:40.100',-1.955
'0:40.110',-2.060
'0:40.120',-1.900
'0:40.130',-1.995
'0:40.140',-2.000
'0:40.150',-2.070
'0:40.160',-1.880
'0:40.170',-1.980
'0:40.180',-1.940
'0:40.190',-2.075
'0:40.200',-1.890
'0:40.210',-1.880
'0:40.220',-1.705
'0:40.230',-1.795
'0:40.240',-1.755
'0:40.250',-1.925
'0:40.260',-1.840
'0:40.270',-1.975
'0:40.280',-1.875
'0:40.290',-1.995
'0:40.300',-1.925
'0:40.310',-2.020
'0:40.320',-1.905
'0:40.330',-2.030
'0:40.340',-1.905
'0:40.350',-2.020
'0:40.360',-1.940
'0:40.370',-1.765
'0:40.380',-0.125
'0:40.390',1.725
'0:40.400',0.490
'0:40.410',-2.875
'0:40.420',-4.210
'0:40.430',-4.005
'0:40.440',-2.910
'0:40.450',-2.315
'0:40.460',-1.990
'0:40.470',-1.945
'0:40.480',-1.785
'0:40.490',-1.835
'0:40.500',-1.680
'0:40.510',-1.800
'0:40.520',-1.695
'0:40.530',-1.755
'0:40.540',-1.620
'0:40.550',-1.695
'0:40.560',-1.570
'0:40.570',-1.625
'0:40.580',-1.505
'0:40.590',-1.610
'0:40.600',-1.425
'0:40.610',-1.460
'0:40.620',-1.305
'0:40.630',-1.320
'0:40.640',-1.150
'0:40.650',-1.190
'0:40.660',-1.040
'0:40.670',-1.145
'0:40.680',-1.060
'0:40.690',-1.185
'0:40.700',-1.140
'0:40.710',-1.335
'0:40.720',-1.355
'0:40.730',-1.555
'0:40.740',-1.530
'0:40.750',-1.690
'0:40.760',-1.655
'0:40.770',-1.805
'0:40.780',-1.710
'0:40.790',-1.820
'0:40.800',-1.760
'0:40.810',-1.885
'0:40.820',-1.790
'0:40.830',-1.900
'0:40.840',-1.795
'0:40.850',-1.890
'0:40.860',-1.770
'0:40.870',-1.840
'0:40.880',-1.730
'0:40.890',-1.800
'0:40.900',-1.690
'0:40.910',-1.750
'0:40.920',-1.625
'0:40.930',-1.735
'0:40.940',-1.630
'0:40.950',-1.705
'0:40.960',-1.630
'0:40.970',-1.720
'0:40.980',-1.625
'0:40.990',-1.710
'0:41.000',-1.615
'0:41.010',-1.720
'0:41.020',-1.605
'0:41.030',-1.665
'0:41.040',-1.555
'0:41.050',-1.625
'0:41.060',-1.465
'0:41.070',-1.520
'0:41.080',-1.405
'0:41.090',-1.450
'0:41.100',-1.350
'0:41.110',-1.515
'0:41.120',-1.455
'0:41.130',-1.585
'0:41.140',-1.565
'0:41.150',-1.680
'0:41.160',-1.610
'0:41.170',-1.710
'0:41.180',-1.595
'0:41.190',-1.705
'0:41.200',-1.615
'0:41.210',-1.705
'0:41.220',-1.575
'0:41.230',-1.390
'0:41.240',0.295
'0:41.250',2.035
'0:41.260',0.545
'0:41.270',-2.760
'0:41.280',-3.975
'0:41.290',-3.730
'0:41.300',-2.615
'0:41.310',-2.035
'0:41.320',-1.715
'0:41.330',-1.655
'0:41.340',-1.505
'0:41.350',-1.570
'0:41.360',-1.445
'0:41.370',-1.485
'0:41.380',-1.400
'0:41.390',-1.485
'0:41.400',-1.370
'0:41.410',-1.435
'0:41.420',-1.340
'0:41.430',-1.395
'0:41.440',-1.245
'0:41.450',-1.285
'0:41.460',-1.165
'0:41.470',-1.200
'0:41.480',-1.040
'0:41.490',-1.050
'0:41.500',-0.880
'0:41.510',-0.915
'0:41.520',-0.780
'0:41.530',-0.830
'0:41.540',-0.755
'0:41.550',-0.895
'0:41.560',-0.870
'0:41.570',-1.065
'0:41.580',-1.130
'0:41.590',-1.340
'0:41.600',-1.340
'0:41.610',-1.490
'0:41.620',-1.425
'0:41.630',-1.550
'0:41.640',-1.520
'0:41.650',-1.625
'0:41.660',-1.565
'0:41.670',-1.655
'0:41.680',-1.555
'0:41.690',-1.695
'0:41.700',-1.610
'0:41.710',-1.685
'0:41.720',-1.585
'0:41.730',-1.705
'0:41.740',-1.620
'0:41.750',-1.655
'0:41.760',-1.575
'0:41.770',-1.625
'0:41.780',-1.530
'0:41.790',-1.605
'0:41.800',-1.500
'0:41.810',-1.580
'0:41.820',-1.485
'0:41.830',-1.570
'0:41.840',-1.460
'0:41.850',-1.535
'0:41.860',-1.455
'0:41.870',-1.520
'0:41.880',-1.385
'0:41.890',-1.415
'0:41.900',-1.285
'0:41.910',-1.360
'0:41.920',-1.225
'0:41.930',-1.270
'0:41.940',-1.230
'0:41.950',-1.355
'0:41.960',-1.330
'0:41.970',-1.480
'0:41.980',-1.410
'0:41.990',-1.520
'0:42.000',-1.465
'0:42.010',-1.545
'0:42.020',-1.460
'0:42.030',-1.540
'0:42.040',-1.430
'0:42.050',-1.485
'0:42.060',-1.320
'0:42.070',-0.360
'0:42.080',2.085
'0:42.090',1.860
'0:42.100',-1.470
'0:42.110',-3.595
'0:42.120',-3.535
'0:42.130',-2.830
'0:42.140',-1.855
'0:42.150',-1.605
'0:42.160',-1.345
'0:42.170',-1.325
'0:42.180',-1.185
'0:42.190',-1.245
'0:42.200',-1.140
'0:42.210',-1.190
'0:42.220',-1.085
'0:42.230',-1.140
'0:42.240',-1.035
'0:42.250',-1.090
'0:42.260',-0.980
'0:42.270',-1.040
'0:42.280',-0.910
'0:42.290',-0.945
'0:42.300',-0.815
'0:42.310',-0.820
'0:42.320',-0.645
'0:42.330',-0.660
'0:42.340',-0.515
'0:42.350',-0.530
'0:42.360',-0.435
'0:42.370',-0.535
'0:42.380',-0.480
'0:42.390',-0.640
'0:42.400',-0.685
'0:42.410',-0.875
'0:42.420',-0.900
'0:42.430',-1.065
'0:42.440',-1.080
'0:42.450',-1.230
'0:42.460',-1.175
'0:42.470',-1.285
'0:42.480',-1.230
'0:42.490',-1.320
'0:42.500',-1.285
'0:42.510',-1.380
'0:42.520',-1.325
'0:42.530',-1.405
'0:42.540',-1.310
'0:42.550',-1.395
'0:42.560',-1.290
'0:42.570',-1.360
'0:42.580',-1.245
'0:42.590',-1.255
'0:42.600',-1.170
'0:42.610',-1.235
'0:42.620',-1.125
'0:42.630',-1.195
'0:42.640',-1.105
'0:42.650',-1.185
'0:42.660',-1.115
'0:42.670',-1.190
'0:42.680',-1.105
'0:42.690',-1.175
'0:42.700',-1.105
'0:42.710',-1.185
'0:42.720',-1.110
'0:42.730',-1.170
'0:42.740',-1.095
'0:42.750',-1.160
'0:42.760',-1.045
'0:42.770',-1.095
'0:42.780',-0.975
'0:42.790',-1.020
'0:42.800',-0.910
'0:42.810',-0.955
'0:42.820',-0.895
'0:42.830',-1.020
'0:42.840',-0.950
'0:42.850',-1.060
'0:42.860',-1.055
'0:42.870',-1.170
'0:42.880',-1.115
'0:42.890',-1.195
'0:42.900',-1.115
'0:42.910',-1.190
'0:42.920',-1.100
'0:42.930',-1.160
'0:42.940',-1.070
'0:42.950',-0.665
'0:42.960',1.580
'0:42.970',3.215
'0:42.980',1.160
'0:42.990',-2.125
'0:43.000',-3.110
'0:43.010',-2.640
'0:43.020',-1.680
'0:43.030',-1.340
'0:43.040',-1.110
'0:43.050',-1.065
'0:43.060',-0.940
'0:43.070',-0.980
'0:43.080',-0.880
'0:43.090',-0.935
'0:43.100',-0.845
'0:43.110',-0.900
'0:43.120',-0.805
'0:43.130',-0.865
'0:43.140',-0.765
'0:43.150',-0.825
'0:43.160',-0.705
'0:43.170',-0.735
'0:43.180',-0.615
'0:43.190',-0.615
'0:43.200',-0.465
'0:43.210',-0.480
'0:43.220',-0.315
'0:43.230',-0.325
'0:43.240',-0.190
'0:43.250',-0.230
'0:43.260',-0.175
'0:43.270',-0.315
'0:43.280',-0.315
'0:43.290',-0.510
'0:43.300',-0.560
'0:43.310',-0.750
'0:43.320',-0.760
'0:43.330',-0.895
'0:43.340',-0.875
'0:43.350',-0.965
'0:43.360',-0.910
'0:43.370',-1.015
'0:43.380',-0.950
'0:43.390',-1.025
'0:43.400',-0.965
'0:43.410',-1.065
'0:43.420',-0.995
'0:43.430',-1.070
'0:43.440',-1.005
'0:43.450',-1.095
'0:43.460',-1.010
'0:43.470',-1.055
'0:43.480',-0.975
'0:43.490',-1.055
'0:43.500',-0.955
'0:43.510',-0.980
'0:43.520',-0.890
'0:43.530',-0.950
'0:43.540',-0.865
'0:43.550',-0.955
'0:43.560',-0.875
'0:43.570',-0.950
'0:43.580',-0.880
'0:43.590',-0.965
'0:43.600',-0.880
'0:43.610',-0.955
'0:43.620',-0.895
'0:43.630',-0.965
'0:43.640',-0.900
'0:43.650',-0.975
'0:43.660',-0.900
'0:43.670',-0.970
'0:43.680',-0.880
'0:43.690',-0.945
'0:43.700',-0.845
'0:43.710',-0.870
'0:43.720',-0.750
'0:43.730',-0.780
'0:43.740',-0.700
'0:43.750',-0.740
'0:43.760',-0.645
'0:43.770',-0.770
'0:43.780',-0.735
'0:43.790',-0.850
'0:43.800',-0.820
'0:43.810',-0.935
'0:43.820',-0.880
'0:43.830',-0.955
'0:43.840',-0.900
'0:43.850',-0.965
'0:43.860',-0.880
'0:43.870',-0.955
'0:43.880',-0.865
'0:43.890',-0.850
'0:43.900',0.390
'0:43.910',2.800
'0:43.920',2.845
'0:43.930',-0.630
'0:43.940',-2.875
'0:43.950',-3.005
'0:43.960',-2.050
'0:43.970',-1.360
'0:43.980',-1.015
'0:43.990',-0.935
'0:44.000',-0.780
'0:44.010',-0.815
'0:44.020',-0.710
'0:44.030',-0.760
'0:44.040',-0.665
'0:44.050',-0.730
'0:44.060',-0.640
'0:44.070',-0.705
'0:44.080',-0.625
'0:44.090',-0.675
'0:44.100',-0.575
'0:44.110',-0.605
'0:44.120',-0.490
'0:44.130',-0.510
'0:44.140',-0.375
'0:44.150',-0.390
'0:44.160',-0.230
'0:44.170',-0.220
'0:44.180',-0.085
'0:44.190',-0.125
'0:44.200',-0.050
'0:44.210',-0.145
'0:44.220',-0.145
'0:44.230',-0.310
'0:44.240',-0.340
'0:44.250',-0.530
'0:44.260',-0.565
'0:44.270',-0.720
'0:44.280',-0.705
'0:44.290',-0.795
'0:44.300',-0.720
'0:44.310',-0.845
'0:44.320',-0.805
'0:44.330',-0.865
'0:44.340',-0.805
'0:44.350',-0.910
'0:44.360',-0.845
'0:44.370',-0.915
'0:44.380',-0.865
'0:44.390',-0.955
'0:44.400',-0.875
'0:44.410',-0.950
'0:44.420',-0.860
'0:44.430',-0.930
'0:44.440',-0.840
'0:44.450',-0.875
'0:44.460',-0.790
'0:44.470',-0.835
'0:44.480',-0.750
'0:44.490',-0.825
'0:44.500',-0.755
'0:44.510',-0.825
'0:44.520',-0.735
'0:44.530',-0.810
'0:44.540',-0.755
'0:44.550',-0.810
'0:44.560',-0.730
'0:44.570',-0.800
'0:44.580',-0.745
'0:44.590',-0.805
'0:44.600',-0.720
'0:44.610',-0.805
'0:44.620',-0.745
'0:44.630',-0.825
'0:44.640',-0.720
'0:44.650',-0.795
'0:44.660',-0.735
'0:44.670',-0.805
'0:44.680',-0.725
'0:44.690',-0.795
'0:44.700',-0.710
'0:44.710',-0.735
'0:44.720',-0.620
'0:44.730',-0.655
'0:44.740',-0.560
'0:44.750',-0.605
'0:44.760',-0.515
'0:44.770',-0.630
'0:44.780',-0.600
'0:44.790',-0.685
'0:44.800',-0.670
'0:44.810',-0.785
'0:44.820',-0.725
'0:44.830',-0.815
'0:44.840',-0.760
'0:44.850',-0.845
'0:44.860',-0.780
'0:44.870',-0.845
'0:44.880',-0.735
'0:44.890',-0.790
'0:44.900',-0.380
'0:44.910',1.420
'0:44.920',3.440
'0:44.930',1.595
'0:44.940',-1.740
'0:44.950',-3.165
'0:44.960',-2.590
'0:44.970',-1.675
'0:44.980',-1.070
'0:44.990',-0.945
'0:45.000',-0.735
'0:45.010',-0.775
'0:45.020',-0.670
'0:45.030',-0.730
'0:45.040',-0.630
'0:45.050',-0.685
'0:45.060',-0.615
'0:45.070',-0.665
'0:45.080',-0.560
'0:45.090',-0.635
'0:45.100',-0.545
'0:45.110',-0.570
'0:45.120',-0.460
'0:45.130',-0.490
'0:45.140',-0.365
'0:45.150',-0.380
'0:45.160',-0.235
'0:45.170',-0.235
'0:45.180',-0.090
'0:45.190',-0.125
'0:45.200',-0.045
'0:45.210',-0.120
'0:45.220',-0.060
'0:45.230',-0.200
'0:45.240',-0.240
'0:45.250',-0.420
'0:45.260',-0.445
'0:45.270',-0.600
'0:45.280',-0.585
'0:45.290',-0.715
'0:45.300',-0.680
'0:45.310',-0.780
'0:45.320',-0.710
'0:45.330',-0.805
'0:45.340',-0.750
'0:45.350',-0.830
'0:45.360',-0.770
'0:45.370',-0.865
'0:45.380',-0.810
'0:45.390',-0.890
'0:45.400',-0.810
'0:45.410',-0.855
'0:45.420',-0.770
'0:45.430',-0.845
'0:45.440',-0.745
'0:45.450',-0.805
'0:45.460',-0.710
'0:45.470',-0.755
'0:45.480',-0.665
'0:45.490',-0.730
'0:45.500',-0.655
'0:45.510',-0.730
'0:45.520',-0.655
'0:45.530',-0.730
'0:45.540',-0.650
'0:45.550',-0.715
'0:45.560',-0.645
'0:45.570',-0.725
'0:45.580',-0.635
'0:45.590',-0.715
'0:45.600',-0.645
'0:45.610',-0.715
'0:45.620',-0.645
'0:45.630',-0.710
'0:45.640',-0.640
'0:45.650',-0.705
'0:45.660',-0.620
'0:45.670',-0.690
'0:45.680',-0.610
'0:45.690',-0.685
'0:45.700',-0.610
'0:45.710',-0.665
'0:45.720',-0.550
'0:45.730',-0.590
'0:45.740',-0.465
'0:45.750',-0.495
'0:45.760',-0.405
'0:45.770',-0.425
'0:45.780',-0.355
'0:45.790',-0.485
'0:45.800',-0.440
'0:45.810',-0.550
'0:45.820',-0.515
'0:45.830',-0.645
'0:45.840',-0.595
'0:45.850',-0.680
'0:45.860',-0.590
'0:45.870',-0.675
'0:45.880',-0.595
'0:45.890',-0.655
'0:45.900',-0.560
'0:45.910',-0.605
'0:45.920',0.100
'0:45.930',2.230
'0:45.940',3.275
'0:45.950',0.540
'0:45.960',-2.160
'0:45.970',-2.880
'0:45.980',-2.150
'0:45.990',-1.275
'0:46.000',-0.805
'0:46.010',-0.700
'0:46.020',-0.525
'0:46.030',-0.540
'0:46.040',-0.430
'0:46.050',-0.495
'0:46.060',-0.390
'0:46.070',-0.460
'0:46.080',-0.365
'0:46.090',-0.400
'0:46.100',-0.325
'0:46.110',-0.375
'0:46.120',-0.275
'0:46.130',-0.320
'0:46.140',-0.220
'0:46.150',-0.255
'0:46.160',-0.145
'0:46.170',-0.165
'0:46.180',0.005
'0:46.190',0.010
'0:46.200',0.135
'0:46.210',0.085
'0:46.220',0.135
'0:46.230',0.035
'0:46.240',0.055
'0:46.250',-0.105
'0:46.260',-0.070
'0:46.270',-0.240
'0:46.280',-0.310
'0:46.290',-0.445
'0:46.300',-0.415
'0:46.310',-0.535
'0:46.320',-0.480
'0:46.330',-0.595
'0:46.340',-0.550
'0:46.350',-0.650
'0:46.360',-0.610
'0:46.370',-0.690
'0:46.380',-0.645
'0:46.390',-0.730
'0:46.400',-0.625
'0:46.410',-0.660
'0:46.420',-0.595
'0:46.430',-0.665
'0:46.440',-0.565
'0:46.450',-0.595
'0:46.460',-0.500
'0:46.470',-0.560
'0:46.480',-0.485
'0:46.490',-0.545
'0:46.500',-0.455
'0:46.510',-0.510
'0:46.520',-0.440
'0:46.530',-0.540
'0:46.540',-0.445
'0:46.550',-0.515
'0:46.560',-0.455
'0:46.570',-0.535
'0:46.580',-0.470
'0:46.590',-0.555
'0:46.600',-0.470
'0:46.610',-0.520
'0:46.620',-0.475
'0:46.630',-0.545
'0:46.640',-0.485
'0:46.650',-0.525
'0:46.660',-0.430
'0:46.670',-0.505
'0:46.680',-0.435
'0:46.690',-0.525
'0:46.700',-0.445
'0:46.710',-0.490
'0:46.720',-0.400
'0:46.730',-0.445
'0:46.740',-0.350
'0:46.750',-0.365
'0:46.760',-0.255
'0:46.770',-0.295
'0:46.780',-0.205
'0:46.790',-0.355
'0:46.800',-0.315
'0:46.810',-0.390
'0:46.820',-0.380
'0:46.830',-0.505
'0:46.840',-0.465
'0:46.850',-0.550
'0:46.860',-0.485
'0:46.870',-0.545
'0:46.880',-0.450
'0:46.890',-0.515
'0:46.900',-0.440
'0:46.910',-0.485
'0:46.920',0.400
'0:46.930',2.610
'0:46.940',3.195
'0:46.950',0.145
'0:46.960',-2.210
'0:46.970',-2.665
'0:46.980',-1.910
'0:46.990',-1.070
'0:47.000',-0.650
'0:47.010',-0.560
'0:47.020',-0.415
'0:47.030',-0.425
'0:47.040',-0.325
'0:47.050',-0.375
'0:47.060',-0.285
'0:47.070',-0.345
'0:47.080',-0.255
'0:47.090',-0.310
'0:47.100',-0.235
'0:47.110',-0.280
'0:47.120',-0.185
'0:47.130',-0.210
'0:47.140',-0.105
'0:47.150',-0.130
'0:47.160',-0.005
'0:47.170',-0.030
'0:47.180',0.115
'0:47.190',0.105
'0:47.200',0.220
'0:47.210',0.165
'0:47.220',0.230
'0:47.230',0.120
'0:47.240',0.120
'0:47.250',-0.020
'0:47.260',-0.040
'0:47.270',-0.205
'0:47.280',-0.220
'0:47.290',-0.350
'0:47.300',-0.330
'0:47.310',-0.440
'0:47.320',-0.415
'0:47.330',-0.510
'0:47.340',-0.450
'0:47.350',-0.535
'0:47.360',-0.505
'0:47.370',-0.595
'0:47.380',-0.515
'0:47.390',-0.590
'0:47.400',-0.515
'0:47.410',-0.555
'0:47.420',-0.475
'0:47.430',-0.540
'0:47.440',-0.445
'0:47.450',-0.490
'0:47.460',-0.395
'0:47.470',-0.450
'0:47.480',-0.365
'0:47.490',-0.430
'0:47.500',-0.360
'0:47.510',-0.445
'0:47.520',-0.365
'0:47.530',-0.440
'0:47.540',-0.385
'0:47.550',-0.460
'0:47.560',-0.385
'0:47.570',-0.450
'0:47.580',-0.390
'0:47.590',-0.470
'0:47.600',-0.420
'0:47.610',-0.485
'0:47.620',-0.400
'0:47.630',-0.475
'0:47.640',-0.415
'0:47.650',-0.475
'0:47.660',-0.410
'0:47.670',-0.480
'0:47.680',-0.400
'0:47.690',-0.475
'0:47.700',-0.405
'0:47.710',-0.485
'0:47.720',-0.420
'0:47.730',-0.485
'0:47.740',-0.365
'0:47.750',-0.395
'0:47.760',-0.280
'0:47.770',-0.305
'0:47.780',-0.220
'0:47.790',-0.265
'0:47.800',-0.235
'0:47.810',-0.345
'0:47.820',-0.280
'0:47.830',-0.410
'0:47.840',-0.400
'0:47.850',-0.490
'0:47.860',-0.450
'0:47.870',-0.575
'0:47.880',-0.515
'0:47.890',-0.545
'0:47.900',-0.490
'0:47.910',-0.555
'0:47.920',-0.470
'0:47.930',-0.290
'0:47.940',1.255
'0:47.950',3.225
'0:47.960',2.095
'0:47.970',-1.325
'0:47.980',-2.840
'0:47.990',-2.630
'0:48.000',-1.605
'0:48.010',-1.010
'0:48.020',-0.685
'0:48.030',-0.615
'0:48.040',-0.510
'0:48.050',-0.495
'0:48.060',-0.430
'0:48.070',-0.475
'0:48.080',-0.380
'0:48.090',-0.455
'0:48.100',-0.360
'0:48.110',-0.410
'0:48.120',-0.335
'0:48.130',-0.385
'0:48.140',-0.285
'0:48.150',-0.330
'0:48.160',-0.220
'0:48.170',-0.220
'0:48.180',-0.135
'0:48.190',-0.150
'0:48.200',-0.005
'0:48.210',0.005
'0:48.220',0.090
'0:48.230',0.045
'0:48.240',0.100
'0:48.250',-0.035
'0:48.260',-0.010
'0:48.270',-0.140
'0:48.280',-0.220
'0:48.290',-0.370
'0:48.300',-0.355
'0:48.310',-0.485
'0:48.320',-0.465
'0:48.330',-0.560
'0:48.340',-0.540
'0:48.350',-0.660
'0:48.360',-0.635
'0:48.370',-0.700
'0:48.380',-0.645
'0:48.390',-0.735
'0:48.400',-0.695
'0:48.410',-0.735
'0:48.420',-0.645
'0:48.430',-0.715
'0:48.440',-0.645
'0:48.450',-0.685
'0:48.460',-0.575
'0:48.470',-0.635
'0:48.480',-0.555
'0:48.490',-0.595
'0:48.500',-0.525
'0:48.510',-0.595
'0:48.520',-0.545
'0:48.530',-0.585
'0:48.540',-0.500
'0:48.550',-0.570
'0:48.560',-0.495
'0:48.570',-0.560
'0:48.580',-0.515
'0:48.590',-0.560
'0:48.600',-0.505
'0:48.610',-0.560
'0:48.620',-0.490
'0:48.630',-0.560
'0:48.640',-0.500
'0:48.650',-0.560
'0:48.660',-0.475
'0:48.670',-0.505
'0:48.680',-0.415
'0:48.690',-0.420
'0:48.700',-0.335
'0:48.710',-0.355
'0:48.720',-0.255
'0:48.730',-0.360
'0:48.740',-0.345
'0:48.750',-0.430
'0:48.760',-0.400
'0:48.770',-0.515
'0:48.780',-0.505
'0:48.790',-0.575
'0:48.800',-0.525
'0:48.810',-0.590
'0:48.820',-0.515
'0:48.830',-0.560
'0:48.840',-0.510
'0:48.850',-0.560
'0:48.860',0.035
'0:48.870',2.160
'0:48.880',3.605
'0:48.890',0.960
'0:48.900',-2.075
'0:48.910',-2.885
'0:48.920',-2.250
'0:48.930',-1.320
'0:48.940',-0.735
'0:48.950',-0.615
'0:48.960',-0.455
'0:48.970',-0.435
'0:48.980',-0.340
'0:48.990',-0.395
'0:49.000',-0.315
'0:49.010',-0.355
'0:49.020',-0.285
'0:49.030',-0.325
'0:49.040',-0.235
'0:49.050',-0.285
'0:49.060',-0.185
'0:49.070',-0.205
'0:49.080',-0.135
'0:49.090',-0.145
'0:49.100',-0.015
'0:49.110',-0.015
'0:49.120',0.115
'0:49.130',0.130
'0:49.140',0.240
'0:49.150',0.190
'0:49.160',0.240
'0:49.170',0.145
'0:49.180',0.140
'0:49.190',0.005
'0:49.200',-0.055
'0:49.210',-0.215
'0:49.220',-0.225
'0:49.230',-0.365
'0:49.240',-0.370
'0:49.250',-0.465
'0:49.260',-0.445
'0:49.270',-0.540
'0:49.280',-0.515
'0:49.290',-0.595
'0:49.300',-0.560
'0:49.310',-0.635
'0:49.320',-0.585
'0:49.330',-0.640
'0:49.340',-0.575
'0:49.350',-0.615
'0:49.360',-0.550
'0:49.370',-0.575
'0:49.380',-0.495
'0:49.390',-0.520
'0:49.400',-0.435
'0:49.410',-0.465
'0:49.420',-0.390
'0:49.430',-0.465
'0:49.440',-0.415
'0:49.450',-0.455
'0:49.460',-0.425
'0:49.470',-0.485
'0:49.480',-0.430
'0:49.490',-0.485
'0:49.500',-0.425
'0:49.510',-0.485
'0:49.520',-0.440
'0:49.530',-0.495
'0:49.540',-0.440
'0:49.550',-0.490
'0:49.560',-0.435
'0:49.570',-0.485
'0:49.580',-0.435
'0:49.590',-0.495
'0:49.600',-0.445
'0:49.610',-0.500
'0:49.620',-0.445
'0:49.630',-0.465
'0:49.640',-0.355
'0:49.650',-0.365
'0:49.660',-0.285
'0:49.670',-0.325
'0:49.680',-0.220
'0:49.690',-0.260
'0:49.700',-0.260
'0:49.710',-0.360
'0:49.720',-0.355
'0:49.730',-0.450
'0:49.740',-0.420
'0:49.750',-0.500
'0:49.760',-0.465
'0:49.770',-0.515
'0:49.780',-0.470
'0:49.790',-0.515
'0:49.800',-0.455
'0:49.810',-0.500
'0:49.820',-0.320
'0:49.830',0.930
'0:49.840',3.405
'0:49.850',2.955
'0:49.860',-0.540
'0:49.870',-2.640
'0:49.880',-2.495
'0:49.890',-1.660
'0:49.900',-0.865
'0:49.910',-0.665
'0:49.920',-0.465
'0:49.930',-0.455
'0:49.940',-0.345
'0:49.950',-0.365
'0:49.960',-0.295
'0:49.970',-0.330
'0:49.980',-0.275
'0:49.990',-0.300
'0:50.000',-0.235
'0:50.010',-0.275
'0:50.020',-0.220
'0:50.030',-0.225
'0:50.040',-0.145
'0:50.050',-0.155
'0:50.060',-0.055
'0:50.070',-0.040
'0:50.080',0.060
'0:50.090',0.080
'0:50.100',0.185
'0:50.110',0.175
'0:50.120',0.240
'0:50.130',0.170
'0:50.140',0.170
'0:50.150',0.065
'0:50.160',0.015
'0:50.170',-0.115
'0:50.180',-0.165
'0:50.190',-0.275
'0:50.200',-0.300
'0:50.210',-0.395
'0:50.220',-0.390
'0:50.230',-0.455
'0:50.240',-0.435
'0:50.250',-0.510
'0:50.260',-0.490
'0:50.270',-0.545
'0:50.280',-0.510
'0:50.290',-0.560
'0:50.300',-0.515
'0:50.310',-0.540
'0:50.320',-0.485
'0:50.330',-0.510
'0:50.340',-0.440
'0:50.350',-0.445
'0:50.360',-0.375
'0:50.370',-0.390
'0:50.380',-0.335
'0:50.390',-0.360
'0:50.400',-0.325
'0:50.410',-0.365
'0:50.420',-0.325
'0:50.430',-0.365
'0:50.440',-0.315
'0:50.450',-0.365
'0:50.460',-0.335
'0:50.470',-0.375
'0:50.480',-0.340
'0:50.490',-0.380
'0:50.500',-0.345
'0:50.510',-0.390
'0:50.520',-0.350
'0:50.530',-0.385
'0:50.540',-0.350
'0:50.550',-0.395
'0:50.560',-0.350
'0:50.570',-0.385
'0:50.580',-0.330
'0:50.590',-0.320
'0:50.600',-0.255
'0:50.610',-0.260
'0:50.620',-0.205
'0:50.630',-0.225
'0:50.640',-0.155
'0:50.650',-0.185
'0:50.660',-0.200
'0:50.670',-0.280
'0:50.680',-0.290
'0:50.690',-0.370
'0:50.700',-0.340
'0:50.710',-0.400
'0:50.720',-0.395
'0:50.730',-0.425
'0:50.740',-0.395
'0:50.750',-0.430
'0:50.760',-0.385
'0:50.770',-0.400
'0:50.780',-0.025
'0:50.790',1.785
'0:50.800',3.690
'0:50.810',1.950
'0:50.820',-1.285
'0:50.830',-2.600
'0:50.840',-2.100
'0:50.850',-1.195
'0:50.860',-0.645
'0:50.870',-0.490
'0:50.880',-0.335
'0:50.890',-0.330
'0:50.900',-0.255
'0:50.910',-0.270
'0:50.920',-0.225
'0:50.930',-0.250
'0:50.940',-0.215
'0:50.950',-0.225
'0:50.960',-0.175
'0:50.970',-0.190
'0:50.980',-0.130
'0:50.990',-0.135
'0:51.000',-0.075
'0:51.010',-0.065
'0:51.020',0.030
'0:51.030',0.055
'0:51.040',0.135
'0:51.050',0.170
'0:51.060',0.260
'0:51.070',0.275
'0:51.080',0.320
'0:51.090',0.270
'0:51.100',0.245
'0:51.110',0.150
'0:51.120',0.095
'0:51.130',-0.025
'0:51.140',-0.085
'0:51.150',-0.195
'0:51.160',-0.205
'0:51.170',-0.270
'0:51.180',-0.285
'0:51.190',-0.340
'0:51.200',-0.345
'0:51.210',-0.385
'0:51.220',-0.370
'0:51.230',-0.420
'0:51.240',-0.400
'0:51.250',-0.445
'0:51.260',-0.420
'0:51.270',-0.445
'0:51.280',-0.410
'0:51.290',-0.420
'0:51.300',-0.375
'0:51.310',-0.370
'0:51.320',-0.325
'0:51.330',-0.345
'0:51.340',-0.300
'0:51.350',-0.325
'0:51.360',-0.285
'0:51.370',-0.310
'0:51.380',-0.280
'0:51.390',-0.315
'0:51.400',-0.290
'0:51.410',-0.305
'0:51.420',-0.280
'0:51.430',-0.305
'0:51.440',-0.270
'0:51.450',-0.285
'0:51.460',-0.280
'0:51.470',-0.305
'0:51.480',-0.280
'0:51.490',-0.305
'0:51.500',-0.285
'0:51.510',-0.300
'0:51.520',-0.265
'0:51.530',-0.290
'0:51.540',-0.280
'0:51.550',-0.295
'0:51.560',-0.245
'0:51.570',-0.235
'0:51.580',-0.165
'0:51.590',-0.150
'0:51.600',-0.110
'0:51.610',-0.095
'0:51.620',-0.070
'0:51.630',-0.145
'0:51.640',-0.155
'0:51.650',-0.205
'0:51.660',-0.250
'0:51.670',-0.305
'0:51.680',-0.305
'0:51.690',-0.345
'0:51.700',-0.300
'0:51.710',-0.335
'0:51.720',-0.330
'0:51.730',-0.330
'0:51.740',-0.300
'0:51.750',-0.130
'0:51.760',1.375
'0:51.770',3.430
'0:51.780',2.390
'0:51.790',-0.925
'0:51.800',-2.520
'0:51.810',-2.255
'0:51.820',-1.280
'0:51.830',-0.655
'0:51.840',-0.410
'0:51.850',-0.305
'0:51.860',-0.245
'0:51.870',-0.195
'0:51.880',-0.145
'0:51.890',-0.155
'0:51.900',-0.105
'0:51.910',-0.105
'0:51.920',-0.085
'0:51.930',-0.075
'0:51.940',-0.045
'0:51.950',-0.050
'0:51.960',-0.015
'0:51.970',0.005
'0:51.980',0.065
'0:51.990',0.095
'0:52.000',0.175
'0:52.010',0.215
'0:52.020',0.285
'0:52.030',0.335
'0:52.040',0.395
'0:52.050',0.395
'0:52.060',0.390
'0:52.070',0.340
'0:52.080',0.300
'0:52.090',0.200
'0:52.100',0.115
'0:52.110',0.010
'0:52.120',-0.065
'0:52.130',-0.135
'0:52.140',-0.170
'0:52.150',-0.235
'0:52.160',-0.255
'0:52.170',-0.270
'0:52.180',-0.285
'0:52.190',-0.320
'0:52.200',-0.315
'0:52.210',-0.335
'0:52.220',-0.330
'0:52.230',-0.350
'0:52.240',-0.345
'0:52.250',-0.345
'0:52.260',-0.325
'0:52.270',-0.315
'0:52.280',-0.290
'0:52.290',-0.270
'0:52.300',-0.250
'0:52.310',-0.240
'0:52.320',-0.230
'0:52.330',-0.215
'0:52.340',-0.190
'0:52.350',-0.215
'0:52.360',-0.205
'0:52.370',-0.220
'0:52.380',-0.215
'0:52.390',-0.230
'0:52.400',-0.215
'0:52.410',-0.230
'0:52.420',-0.215
'0:52.430',-0.220
'0:52.440',-0.220
'0:52.450',-0.215
'0:52.460',-0.215
'0:52.470',-0.225
'0:52.480',-0.210
'0:52.490',-0.190
'0:52.500',-0.140
'0:52.510',-0.120
'0:52.520',-0.070
'0:52.530',-0.050
'0:52.540',-0.020
'0:52.550',-0.010
'0:52.560',-0.060
'0:52.570',-0.090
'0:52.580',-0.125
'0:52.590',-0.200
'0:52.600',-0.230
'0:52.610',-0.260
'0:52.620',-0.260
'0:52.630',-0.255
'0:52.640',-0.270
'0:52.650',-0.260
'0:52.660',-0.255
'0:52.670',-0.245
'0:52.680',-0.190
'0:52.690',0.745
'0:52.700',2.950
'0:52.710',2.940
'0:52.720',-0.245
'0:52.730',-2.380
'0:52.740',-2.515
'0:52.750',-1.690
'0:52.760',-0.770
'0:52.770',-0.430
'0:52.780',-0.255
'0:52.790',-0.185
'0:52.800',-0.135
'0:52.810',-0.100
'0:52.820',-0.095
'0:52.830',-0.080
'0:52.840',-0.060
'0:52.850',-0.050
'0:52.860',-0.025
'0:52.870',-0.005
'0:52.880',0.020
'0:52.890',0.050
'0:52.900',0.080
'0:52.910',0.115
'0:52.920',0.160
'0:52.930',0.220
'0:52.940',0.280
'0:52.950',0.355
'0:52.960',0.415
'0:52.970',0.470
'0:52.980',0.480
'0:52.990',0.485
'0:53.000',0.455
'0:53.010',0.385
'0:53.020',0.305
'0:53.030',0.195
'0:53.040',0.115
'0:53.050',0.040
'0:53.060',-0.030
'0:53.070',-0.080
'0:53.080',-0.130
'0:53.090',-0.165
'0:53.100',-0.180
'0:53.110',-0.195
'0:53.120',-0.230
'0:53.130',-0.235
'0:53.140',-0.250
'0:53.150',-0.260
'0:53.160',-0.265
'0:53.170',-0.265
'0:53.180',-0.265
'0:53.190',-0.240
'0:53.200',-0.235
'0:53.210',-0.215
'0:53.220',-0.195
'0:53.230',-0.165
'0:53.240',-0.165
'0:53.250',-0.140
'0:53.260',-0.140
'0:53.270',-0.130
'0:53.280',-0.145
'0:53.290',-0.140
'0:53.300',-0.150
'0:53.310',-0.145
'0:53.320',-0.160
'0:53.330',-0.155
'0:53.340',-0.155
'0:53.350',-0.145
'0:53.360',-0.165
'0:53.370',-0.155
'0:53.380',-0.165
'0:53.390',-0.160
'0:53.400',-0.165
'0:53.410',-0.155
'0:53.420',-0.165
'0:53.430',-0.160
'0:53.440',-0.145
'0:53.450',-0.090
'0:53.460',-0.070
'0:53.470',-0.020
'0:53.480',-0.005
'0:53.490',0.020
'0:53.500',0.035
'0:53.510',0.035
'0:53.520',-0.035
'0:53.530',-0.060
'0:53.540',-0.095
'0:53.550',-0.160
'0:53.560',-0.205
'0:53.570',-0.215
'0:53.580',-0.245
'0:53.590',-0.215
'0:53.600',-0.235
'0:53.610',-0.230
'0:53.620',-0.225
'0:53.630',-0.210
'0:53.640',0.090
'0:53.650',1.810
'0:53.660',3.465
'0:53.670',1.725
'0:53.680',-1.370
'0:53.690',-2.555
'0:53.700',-2.160
'0:53.710',-1.135
'0:53.720',-0.575
'0:53.730',-0.355
'0:53.740',-0.215
'0:53.750',-0.160
'0:53.760',-0.140
'0:53.770',-0.095
'0:53.780',-0.100
'0:53.790',-0.070
'0:53.800',-0.075
'0:53.810',-0.035
'0:53.820',-0.040
'0:53.830',-0.010
'0:53.840',-0.015
'0:53.850',0.035
'0:53.860',0.055
'0:53.870',0.110
'0:53.880',0.150
'0:53.890',0.230
'0:53.900',0.270
'0:53.910',0.350
'0:53.920',0.385
'0:53.930',0.435
'0:53.940',0.430
'0:53.950',0.445
'0:53.960',0.380
'0:53.970',0.330
'0:53.980',0.225
'0:53.990',0.150
'0:54.000',0.045
'0:54.010',-0.005
'0:54.020',-0.095
'0:54.030',-0.115
'0:54.040',-0.170
'0:54.050',-0.185
'0:54.060',-0.230
'0:54.070',-0.215
'0:54.080',-0.270
'0:54.090',-0.260
'0:54.100',-0.285
'0:54.110',-0.270
'0:54.120',-0.300
'0:54.130',-0.275
'0:54.140',-0.295
'0:54.150',-0.255
'0:54.160',-0.265
'0:54.170',-0.215
'0:54.180',-0.210
'0:54.190',-0.180
'0:54.200',-0.190
'0:54.210',-0.140
'0:54.220',-0.160
'0:54.230',-0.130
'0:54.240',-0.155
'0:54.250',-0.145
'0:54.260',-0.155
'0:54.270',-0.135
'0:54.280',-0.155
'0:54.290',-0.150
'0:54.300',-0.170
'0:54.310',-0.145
'0:54.320',-0.185
'0:54.330',-0.165
'0:54.340',-0.185
'0:54.350',-0.130
'0:54.360',-0.120
'0:54.370',-0.065
'0:54.380',-0.060
'0:54.390',-0.005
'0:54.400',0.020
'0:54.410',0.060
'0:54.420',-0.025
'0:54.430',-0.045
'0:54.440',-0.100
'0:54.450',-0.115
'0:54.460',-0.180
'0:54.470',-0.185
'0:54.480',-0.240
'0:54.490',-0.215
'0:54.500',-0.240
'0:54.510',-0.210
'0:54.520',-0.225
'0:54.530',-0.185
'0:54.540',-0.075
'0:54.550',1.130
'0:54.560',3.150
'0:54.570',2.545
'0:54.580',-0.665
'0:54.590',-2.410
'0:54.600',-2.390
'0:54.610',-1.425
'0:54.620',-0.640
'0:54.630',-0.355
'0:54.640',-0.215
'0:54.650',-0.125
'0:54.660',-0.105
'0:54.670',-0.045
'0:54.680',-0.045
'0:54.690',0.000
'0:54.700',-0.015
'0:54.710',0.035
'0:54.720',0.020
'0:54.730',0.065
'0:54.740',0.060
'0:54.750',0.125
'0:54.760',0.130
'0:54.770',0.195
'0:54.780',0.205
'0:54.790',0.285
'0:54.800',0.330
'0:54.810',0.425
'0:54.820',0.450
'0:54.830',0.515
'0:54.840',0.510
'0:54.850',0.535
'0:54.860',0.465
'0:54.870',0.435
'0:54.880',0.325
'0:54.890',0.255
'0:54.900',0.135
'0:54.910',0.080
'0:54.920',-0.020
'0:54.930',-0.045
'0:54.940',-0.105
'0:54.950',-0.110
'0:54.960',-0.165
'0:54.970',-0.155
'0:54.980',-0.205
'0:54.990',-0.205
'0:55.000',-0.225
'0:55.010',-0.195
'0:55.020',-0.230
'0:55.030',-0.200
'0:55.040',-0.230
'0:55.050',-0.185
'0:55.060',-0.195
'0:55.070',-0.150
'0:55.080',-0.160
'0:55.090',-0.110
'0:55.100',-0.130
'0:55.110',-0.095
'0:55.120',-0.125
'0:55.130',-0.090
'0:55.140',-0.125
'0:55.150',-0.095
'0:55.160',-0.115
'0:55.170',-0.080
'0:55.180',-0.115
'0:55.190',-0.085
'0:55.200',-0.115
'0:55.210',-0.080
'0:55.220',-0.110
'0:55.230',-0.050
'0:55.240',-0.030
'0:55.250',0.030
'0:55.260',0.035
'0:55.270',0.080
'0:55.280',0.080
'0:55.290',0.115
'0:55.300',0.030
'0:55.310',0.005
'0:55.320',-0.060
'0:55.330',-0.075
'0:55.340',-0.135
'0:55.350',-0.140
'0:55.360',-0.185
'0:55.370',-0.150
'0:55.380',-0.175
'0:55.390',-0.145
'0:55.400',-0.160
'0:55.410',-0.115
'0:55.420',0.080
'0:55.430',1.430
'0:55.440',2.975
'0:55.450',1.680
'0:55.460',-1.190
'0:55.470',-2.425
'0:55.480',-2.285
'0:55.490',-1.255
'0:55.500',-0.545
'0:55.510',-0.275
'0:55.520',-0.145
'0:55.530',-0.065
'0:55.540',-0.055
'0:55.550',-0.005
'0:55.560',-0.015
'0:55.570',0.035
'0:55.580',0.025
'0:55.590',0.080
'0:55.600',0.045
'0:55.610',0.090
'0:55.620',0.080
'0:55.630',0.135
'0:55.640',0.135
'0:55.650',0.210
'0:55.660',0.225
'0:55.670',0.315
'0:55.680',0.345
'0:55.690',0.430
'0:55.700',0.455
'0:55.710',0.530
'0:55.720',0.510
'0:55.730',0.525
'0:55.740',0.465
'0:55.750',0.450
'0:55.760',0.325
'0:55.770',0.255
'0:55.780',0.125
'0:55.790',0.075
'0:55.800',-0.035
'0:55.810',-0.045
'0:55.820',-0.110
'0:55.830',-0.110
'0:55.840',-0.170
'0:55.850',-0.160
'0:55.860',-0.215
'0:55.870',-0.185
'0:55.880',-0.225
'0:55.890',-0.205
'0:55.900',-0.235
'0:55.910',-0.195
'0:55.920',-0.220
'0:55.930',-0.170
'0:55.940',-0.170
'0:55.950',-0.115
'0:55.960',-0.130
'0:55.970',-0.085
'0:55.980',-0.105
'0:55.990',-0.065
'0:56.000',-0.080
'0:56.010',-0.055
'0:56.020',-0.085
'0:56.030',-0.060
'0:56.040',-0.100
'0:56.050',-0.055
'0:56.060',-0.090
'0:56.070',-0.065
'0:56.080',-0.095
'0:56.090',-0.065
'0:56.100',-0.090
'0:56.110',-0.030
'0:56.120',-0.020
'0:56.130',0.045
'0:56.140',0.050
'0:56.150',0.115
'0:56.160',0.100
'0:56.170',0.170
'0:56.180',0.130
'0:56.190',0.100
'0:56.200',0.010
'0:56.210',0.000
'0:56.220',-0.075
'0:56.230',-0.070
'0:56.240',-0.125
'0:56.250',-0.100
'0:56.260',-0.130
'0:56.270',-0.105
'0:56.280',-0.145
'0:56.290',-0.095
'0:56.300',-0.090
'0:56.310',0.325
'0:56.320',1.845
'0:56.330',2.950
'0:56.340',0.965
'0:56.350',-1.475
'0:56.360',-2.405
'0:56.370',-2.035
'0:56.380',-1.025
'0:56.390',-0.405
'0:56.400',-0.225
'0:56.410',-0.055
'0:56.420',-0.045
'0:56.430',0.030
'0:56.440',0.020
'0:56.450',0.070
'0:56.460',0.050
'0:56.470',0.105
'0:56.480',0.085
'0:56.490',0.135
'0:56.500',0.115
'0:56.510',0.180
'0:56.520',0.175
'0:56.530',0.240
'0:56.540',0.240
'0:56.550',0.315
'0:56.560',0.335
'0:56.570',0.430
'0:56.580',0.455
'0:56.590',0.560
'0:56.600',0.550
'0:56.610',0.575
'0:56.620',0.520
'0:56.630',0.525
'0:56.640',0.425
'0:56.650',0.370
'0:56.660',0.240
'0:56.670',0.175
'0:56.680',0.070
'0:56.690',0.040
'0:56.700',-0.045
'0:56.710',-0.040
'0:56.720',-0.095
'0:56.730',-0.090
'0:56.740',-0.145
'0:56.750',-0.130
'0:56.760',-0.170
'0:56.770',-0.135
'0:56.780',-0.175
'0:56.790',-0.145
'0:56.800',-0.170
'0:56.810',-0.110
'0:56.820',-0.115
'0:56.830',-0.070
'0:56.840',-0.095
'0:56.850',-0.035
'0:56.860',-0.055
'0:56.870',0.000
'0:56.880',-0.030
'0:56.890',0.005
'0:56.900',-0.035
'0:56.910',-0.005
'0:56.920',-0.040
'0:56.930',0.000
'0:56.940',-0.045
'0:56.950',-0.005
'0:56.960',-0.045
'0:56.970',-0.005
'0:56.980',-0.045
'0:56.990',-0.010
'0:57.000',-0.040
'0:57.010',0.000
'0:57.020',-0.005
'0:57.030',0.065
'0:57.040',0.080
'0:57.050',0.145
'0:57.060',0.125
'0:57.070',0.195
'0:57.080',0.150
'0:57.090',0.135
'0:57.100',0.050
'0:57.110',0.035
'0:57.120',-0.055
'0:57.130',-0.045
'0:57.140',-0.110
'0:57.150',-0.095
'0:57.160',-0.125
'0:57.170',-0.080
'0:57.180',-0.125
'0:57.190',-0.080
'0:57.200',-0.110
'0:57.210',0.040
'0:57.220',0.905
'0:57.230',2.735
'0:57.240',2.320
'0:57.250',-0.365
'0:57.260',-2.080
'0:57.270',-2.265
'0:57.280',-1.520
'0:57.290',-0.580
'0:57.300',-0.300
'0:57.310',-0.115
'0:57.320',-0.045
'0:57.330',0.090
'0:57.340',0.125
'0:57.350',0.210
'0:57.360',0.325
'0:57.370',0.300
'0:57.380',0.045
'0:57.390',0.030
'0:57.400',0.015
'0:57.410',0.130
'0:57.420',0.185
'0:57.430',0.295
'0:57.440',0.435
'0:57.450',0.870
'0:57.460',0.685
'0:57.470',0.275
'0:57.480',0.205
'0:57.490',0.350
'0:57.500',0.465
'0:57.510',0.630
'0:57.520',0.605
'0:57.530',0.695
'0:57.540',0.620
'0:57.550',0.560
'0:57.560',0.480
'0:57.570',0.425
'0:57.580',0.325
'0:57.590',0.160
'0:57.600',-0.150
'0:57.610',-0.055
'0:57.620',-0.045
'0:57.630',-0.110
'0:57.640',-0.155
'0:57.650',-0.110
'0:57.660',-0.130
'0:57.670',0.015
'0:57.680',-0.010
'0:57.690',0.095
'0:57.700',-0.035
'0:57.710',-0.200
'0:57.720',-0.220
'0:57.730',-0.195
'0:57.740',-0.145
'0:57.750',0.015
'0:57.760',-0.030
'0:57.770',-0.050
'0:57.780',-0.190
'0:57.790',0.025
'0:57.800',-0.015
'0:57.810',-0.005
'0:57.820',-0.100
'0:57.830',-0.080
'0:57.840',-0.145
'0:57.850',-0.185
'0:57.860',-0.125
'0:57.870',0.090
'0:57.880',-0.030
'0:57.890',0.010
'0:57.900',-0.105
'0:57.910',-0.145
'0:57.920',-0.125
'0:57.930',-0.165
'0:57.940',-0.210
'0:57.950',0.035
'0:57.960',0.005
'0:57.970',-0.070
'0:57.980',-0.010
'0:57.990',0.195
'0:58.000',0.095
'0:58.010',0.025
'0:58.020',-0.165
'0:58.030',-0.150
'0:58.040',-0.160
'0:58.050',-0.125
'0:58.060',-0.240
'0:58.070',-0.190
'0:58.080',-0.210
'0:58.090',-0.265
'0:58.100',-0.330
'0:58.110',-0.120
'0:58.120',-0.135
'0:58.130',-0.165
'0:58.140',0.610
'0:58.150',2.795
'0:58.160',2.605
'0:58.170',-0.350
'0:58.180',-2.115
'0:58.190',-2.265
'0:58.200',-1.725
'0:58.210',-0.745
'0:58.220',-0.440
'0:58.230',-0.290
'0:58.240',-0.165
'0:58.250',-0.030
'0:58.260',-0.150
'0:58.270',-0.015
'0:58.280',0.055
'0:58.290',0.145
'0:58.300',-0.015
'0:58.310',-0.095
'0:58.320',-0.025
'0:58.330',0.080
'0:58.340',0.235
'0:58.350',0.340
'0:58.360',0.010
'0:58.370',0.100
'0:58.380',0.170
'0:58.390',0.240
'0:58.400',0.370
'0:58.410',0.480
'0:58.420',0.525
'0:58.430',0.675
'0:58.440',0.525
'0:58.450',0.450
'0:58.460',0.445
'0:58.470',0.365
'0:58.480',0.110
'0:58.490',0.240
'0:58.500',0.115
'0:58.510',-0.065
'0:58.520',-0.140
'0:58.530',-0.065
'0:58.540',-0.155
'0:58.550',-0.175
'0:58.560',-0.290
'0:58.570',-0.175
'0:58.580',-0.310
'0:58.590',-0.260
'0:58.600',-0.185
'0:58.610',-0.145
'0:58.620',-0.165
'0:58.630',-0.180
'0:58.640',-0.280
'0:58.650',-0.095
'0:58.660',-0.195
'0:58.670',-0.290
'0:58.680',-0.170
'0:58.690',-0.010
'0:58.700',-0.065
'0:58.710',0.120
'0:58.720',-0.045
'0:58.730',-0.165
'0:58.740',-0.045
'0:58.750',-0.015
'0:58.760',-0.155
'0:58.770',0.030
'0:58.780',0.015
'0:58.790',-0.045
'0:58.800',-0.120
'0:58.810',-0.010
'0:58.820',-0.115
'0:58.830',-0.100
'0:58.840',-0.120
'0:58.850',0.135
'0:58.860',0.110
'0:58.870',0.010
'0:58.880',0.090
'0:58.890',0.275
'0:58.900',0.260
'0:58.910',0.230
'0:58.920',-0.015
'0:58.930',0.060
'0:58.940',0.010
'0:58.950',-0.220
'0:58.960',-0.250
'0:58.970',0.055
'0:58.980',-0.080
'0:58.990',-0.100
'0:59.000',-0.035
'0:59.010',-0.155
'0:59.020',-0.215
'0:59.030',0.050
'0:59.040',0.970
'0:59.050',3.190
'0:59.060',2.910
'0:59.070',0.050
'0:59.080',-2.030
'0:59.090',-2.320
'0:59.100',-1.470
'0:59.110',-0.560
'0:59.120',-0.340
'0:59.130',-0.060
'0:59.140',0.045
'0:59.150',0.045
'0:59.160',-0.025
'0:59.170',0.080
'0:59.180',0.095
'0:59.190',0.315
'0:59.200',0.300
'0:59.210',0.150
'0:59.220',-0.070
'0:59.230',0.100
'0:59.240',0.180
'0:59.250',0.260
'0:59.260',0.325
'0:59.270',0.345
'0:59.280',0.245
'0:59.290',0.495
'0:59.300',0.540
'0:59.310',0.540
'0:59.320',0.550
'0:59.330',0.730
'0:59.340',0.580
'0:59.350',0.565
'0:59.360',0.675
'0:59.370',0.625
'0:59.380',0.245
'0:59.390',0.215
'0:59.400',0.110
'0:59.410',0.045
'0:59.420',0.015
'0:59.430',0.035
'0:59.440',-0.075
'0:59.450',0.020
'0:59.460',-0.045
'0:59.470',0.035
'0:59.480',0.025
'0:59.490',-0.005
'0:59.500',-0.140
'0:59.510',-0.125
'0:59.520',-0.220
'0:59.530',-0.105
'0:59.540',-0.120
'0:59.550',-0.045
'0:59.560',-0.060
'0:59.570',0.005
'0:59.580',-0.010
'0:59.590',0.130
'0:59.600',0.045
'0:59.610',0.110
'0:59.620',0.035
'0:59.630',0.065
'0:59.640',0.025
'0:59.650',0.135
'0:59.660',0.010
'0:59.670',-0.055
'0:59.680',-0.010
'0:59.690',0.205
'0:59.700',0.010
'0:59.710',-0.065
'0:59.720',-0.025
'0:59.730',0.085
'0:59.740',0.035
'0:59.750',0.130
'0:59.760',0.030
'0:59.770',-0.005
'0:59.780',-0.060
'0:59.790',0.085
'0:59.800',0.165
'0:59.810',0.270
'0:59.820',0.170
'0:59.830',0.335
'0:59.840',0.295
'0:59.850',0.190
'0:59.860',0.035
'0:59.870',0.165
'0:59.880',0.055
'0:59.890',0.125
'0:59.900',0.105
'0:59.910',0.045
'0:59.920',0.025
'0:59.930',0.120
'0:59.940',-0.015
'0:59.950',-0.020
'0:59.960',-0.125
'0:59.970',0.020
'0:59.980',0.225
'0:59.990',1.820
